-0.243228
-0.212494
-0.141043
-0.0234109
0.13776
0.32879
0.524673
0.692802
0.80004
0.821987
0.750859
0.599148
0.396928
0.183535
-0.0037661
-0.139436
-0.214923
-0.237469
-0.22447
-0.195782
-0.167063
-0.146708
-0.136147
-0.132659
-0.132278
-0.13202
-0.130494
-0.127921
-0.125143
-0.122943
-0.121821
-0.121794
-0.122425
-0.123135
-0.123376
-0.122721
-0.121128
-0.118852
-0.116332
-0.11405
-0.1123
-0.111168
-0.110509
-0.110049
-0.109497
-0.108638
-0.107351
-0.105536
-0.103198
-0.100329
-0.097016
-0.0932659
-0.0891936
-0.0848808
-0.0804595
-0.0761819
-0.0722368
-0.0688419
-0.0662641
-0.0646587
-0.0640691
-0.0644397
-0.0655478
-0.0670042
-0.068469
-0.069616
-0.070275
-0.0704372
-0.0701309
-0.0693504
-0.0680452
-0.0660625
-0.0632934
-0.0597213
-0.0555659
-0.0512467
-0.0472714
-0.0440791
-0.041984
-0.0410444
-0.0411178
-0.0419117
-0.0431187
-0.0445151
-0.0458904
-0.0470907
-0.0480743
-0.0488192
-0.0493777
-0.0499737
-0.0508843
-0.0524064
-0.0546561
-0.0575489
-0.0607187
-0.0636954
-0.0660266
-0.0674333
-0.0677052
-0.0668056
-0.0645645
-0.0607695
-0.0550895
-0.0474271
-0.0379419
-0.0271308
-0.0158456
-0.0049523
0.00484316
0.0132352
0.0203318
0.0266037
0.0326719
0.0389862
0.0458068
0.0530784
0.0606008
0.0680074
0.074995
0.0814185
0.0872227
0.0923675
0.0968314
0.10045
0.103054
0.104536
0.104833
0.10416
0.102767
0.100998
0.0991827
0.0974073
0.0957178
0.0940374
0.0923603
0.0907825
0.0894325
0.0883692
0.0875137
0.0867116
0.0856956
0.084352
0.0826227
0.0806834
0.0787919
0.0771415
0.0758833
0.0750203
0.074424
0.0739492
0.0733809
0.0725125
0.0711539
0.0690891
0.0662777
0.0627742
0.058712
0.0543891
0.0501326
0.0463605
0.0432872
0.0411543
0.0398877
0.0392822
0.0390228
0.0386776
0.0379504
0.0365969
0.0345867
0.0319959
0.0289928
0.0258428
0.0228091
0.0201622
0.0181516
0.0169412
0.016528
0.0167611
0.0173054
0.0178098
0.0179172
0.017419
0.0162904
0.0146046
0.0125068
0.0100798
0.00750573
0.00479795
0.0020884
-0.000502529
-0.00290504
-0.00492084
-0.00649135
-0.00750546
-0.00785594
-0.00737626
-0.00593013
-0.00344272
-0.000116993
0.0036241
0.00714943
0.00979323
0.0111097
0.0109406
0.00948811
0.00724726
0.00484216
0.00272799
0.00105178
-0.000319824
-0.00165677
-0.00319667
-0.0048944
-0.00644865
-0.00730855
-0.00693139
-0.00495697
-0.00148532
0.00315932
0.0083862
0.0137311
0.0189623
0.0241116
0.029359
0.0349295
0.0408826
0.0470835
0.0534171
0.0596748
0.0658448
0.0720587
0.0784294
0.0848447
0.0909062
0.0959164
0.0989954
0.0995069
0.0971973
0.0925041
0.0863915
0.0802322
0.0753466
0.072713
0.0727452
0.0750261
0.0784355
0.0813565
0.0821837
0.0797364
0.0736731
0.064438
0.0531502
0.0412036
0.0296232
0.0190402
0.00937432
0.000236768
-0.00886729
-0.0181389
-0.0274107
-0.0361955
-0.0438784
-0.0500268
-0.0543085
-0.0567885
-0.0577605
-0.0578089
-0.0576203
-0.057763
-0.0586637
-0.0605169
-0.0630841
-0.0658273
-0.0680896
-0.0691903
-0.0686385
-0.0663898
-0.0629102
-0.0591182
-0.0561172
-0.0553766
-0.0582123
-0.0659148
-0.0793553
-0.0990258
-0.124829
-0.155798
-0.189483
-0.221538
-0.245573
-0.253483
-0.236323
-0.185804
-0.0961975
0.033597
0.198777
0.38859
0.587248
0.776009
0.93583
1.04981
1.10529
1.0955
1.02027
0.886265
0.706392
0.498904
0.285094
0.0866006
-0.0784489
-0.198558
-0.270637
-0.299873
-0.297481
-0.277213
-0.251685
-0.229624
-0.214837
-0.207057
-0.203719
-0.201945
-0.199689
-0.19629
-0.192177
-0.18809
-0.184754
-0.182383
-0.180916
-0.180059
-0.179465
-0.178888
-0.1781
-0.176851
-0.174986
-0.172519
-0.169603
-0.166593
-0.164072
-0.162467
-0.162072
-0.162915
-0.164747
-0.166895
-0.168697
-0.16943
-0.16854
-0.165893
-0.161819
-0.157026
-0.152342
-0.148524
-0.145873
-0.144315
-0.143398
-0.142558
-0.141397
-0.139762
-0.137705
-0.1355
-0.133404
-0.131543
-0.130072
-0.129085
-0.128579
-0.128591
-0.129138
-0.130174
-0.131463
-0.132838
-0.133923
-0.13435
-0.133947
-0.132692
-0.130758
-0.128554
-0.126504
-0.124912
-0.123904
-0.123285
-0.122744
-0.122084
-0.121183
-0.12017
-0.119386
-0.119196
-0.119778
-0.121196
-0.123209
-0.125427
-0.127422
-0.128787
-0.129214
-0.128477
-0.126407
-0.122831
-0.117528
-0.110414
-0.101492
-0.0909079
-0.0791152
-0.0666978
-0.0543423
-0.0426972
-0.0321245
-0.0226916
-0.0141951
-0.00610469
0.00206289
0.0106783
0.0199272
0.0297772
0.0400176
0.0502416
0.0601032
0.0691235
0.0769083
0.0830707
0.0874748
0.090125
0.0913007
0.0914293
0.0910221
0.0904766
0.0900986
0.0900062
0.0902276
0.0907291
0.0914357
0.0923203
0.0931912
0.0938241
0.093995
0.0934852
0.0921767
0.0901708
0.0877294
0.0851606
0.0827702
0.0807869
0.0792056
0.0779901
0.0770124
0.0760411
0.0747961
0.0729875
0.0703664
0.066872
0.0625959
0.0579379
0.0533781
0.0493031
0.0458931
0.0430649
0.0405679
0.0380698
0.0354453
0.0327821
0.0302133
0.0279287
0.0259105
0.0240662
0.0222204
0.0201533
0.0178461
0.0154661
0.0132556
0.0114278
0.0100841
0.00915209
0.0084387
0.00770035
0.006825
0.00587053
0.00504794
0.00459788
0.0047152
0.00538563
0.0063228
0.00712541
0.00737316
0.00680905
0.0054759
0.00358347
0.00152821
-0.000426601
-0.0021235
-0.00367448
-0.00527029
-0.00690653
-0.00859178
-0.0100901
-0.0111426
-0.0116111
-0.0116114
-0.011382
-0.0113783
-0.0118781
-0.0130558
-0.0148094
-0.0168274
-0.018573
-0.019744
-0.0201418
-0.0199815
-0.0197941
-0.0201464
-0.0214741
-0.0237735
-0.0265559
-0.0290113
-0.0301972
-0.0293832
-0.0261814
-0.0207049
-0.0134356
-0.00495095
0.00411754
0.0132238
0.0218753
0.0297102
0.036489
0.0422597
0.0472575
0.0518794
0.0566713
0.062095
0.0683121
0.0751465
0.0819152
0.0877559
0.0918527
0.0936729
0.0932033
0.0908748
0.0874671
0.0838934
0.0809547
0.0792625
0.079069
0.080236
0.0821442
0.0837808
0.0839341
0.0813778
0.0753232
0.0655346
0.0524445
0.0370684
0.0206057
0.00440056
-0.0104708
-0.023172
-0.0332291
-0.0404095
-0.0448571
-0.0469681
-0.0474171
-0.0469532
-0.0462124
-0.0456554
-0.0455102
-0.0457342
-0.046181
-0.0466695
-0.0470366
-0.0472625
-0.0474062
-0.0475271
-0.0478624
-0.0485684
-0.0496745
-0.0511603
-0.0527047
-0.0539698
-0.0544678
-0.0540545
-0.0528762
-0.0513811
-0.0503972
-0.051072
-0.0547015
-0.0625283
-0.0756057
-0.094565
-0.119406
-0.148869
-0.179992
-0.207911
-0.225746
-0.224794
-0.195381
-0.128407
-0.0179566
0.135514
0.322421
0.522701
0.707309
0.843789
0.903869
0.871882
0.750341
0.560567
0.33746
0.119897
-0.059537
-0.182054
-0.245097
-0.259556
-0.243291
-0.214447
-0.186261
-0.165461
-0.153277
-0.147731
-0.145912
-0.14549
-0.14515
-0.144354
-0.142899
-0.140662
-0.137656
-0.134054
-0.130204
-0.126753
-0.124263
-0.123195
-0.12366
-0.125288
-0.127382
-0.129081
-0.129592
-0.12854
-0.125885
-0.122071
-0.117745
-0.11346
-0.109615
-0.10638
-0.103702
-0.101424
-0.0994203
-0.0974789
-0.0955102
-0.0933953
-0.0911195
-0.088724
-0.0862526
-0.0838822
-0.081732
-0.0798357
-0.0782709
-0.0770518
-0.0761464
-0.0755801
-0.0753561
-0.0754515
-0.0757437
-0.0760327
-0.0762267
-0.0761634
-0.0758687
-0.0753411
-0.0745669
-0.0734803
-0.0719128
-0.0698657
-0.0673761
-0.0647765
-0.0623808
-0.0606137
-0.059643
-0.0594852
-0.0600053
-0.0608462
-0.0617548
-0.0624874
-0.0628663
-0.0628607
-0.0625928
-0.0623385
-0.0625687
-0.0638314
-0.0666089
-0.0710915
-0.0770924
-0.084109
-0.0912499
-0.097599
-0.10228
-0.104664
-0.104329
-0.101094
-0.0949282
-0.0859517
-0.0744934
-0.0610212
-0.0462506
-0.030969
-0.0158074
-0.00126415
0.0125161
0.0255071
0.037812
0.0495339
0.0606153
0.0708875
0.0801859
0.0883337
0.0952898
0.101071
0.105738
0.109461
0.11232
0.114438
0.115896
0.116872
0.117494
0.118039
0.118727
0.119637
0.120751
0.121864
0.122737
0.123172
0.123038
0.122463
0.121665
0.120946
0.120567
0.120526
0.120724
0.120897
0.120589
0.119316
0.116743
0.112725
0.107448
0.101373
0.0952046
0.0896412
0.0851875
0.0821565
0.0804941
0.0799059
0.0799389
0.0801434
0.0801461
0.0796485
0.0785164
0.076704
0.0743035
0.0714483
0.0684175
0.0655349
0.0630188
0.0610583
0.059707
0.0588359
0.0582496
0.0577359
0.0570502
0.0559919
0.0544984
0.0526059
0.0504538
0.048225
0.0461389
0.044269
0.0425681
0.0408399
0.0388178
0.0363436
0.0333383
0.0300651
0.0268738
0.0241542
0.0222241
0.021264
0.0212799
0.0221503
0.02362
0.0254557
0.0273164
0.0289513
0.0300278
0.0302447
0.0293393
0.0272105
0.0239401
0.019803
0.0153304
0.0111508
0.00789475
0.00602492
0.00584017
0.00734354
0.0102949
0.0143144
0.0190074
0.024125
0.0294181
0.0348145
0.0403713
0.0461046
0.05211
0.0584293
0.0651016
0.0720407
0.0791469
0.0861332
0.0926762
0.0983227
0.102595
0.10506
0.105456
0.103743
0.100126
0.0950983
0.08936
0.083942
0.0798133
0.077782
0.0782045
0.0809192
0.0849948
0.0887915
0.0905606
0.0886756
0.0821502
0.071031
0.0562057
0.0393078
0.0221268
0.0062814
-0.00706645
-0.0174383
-0.0248957
-0.029865
-0.0330592
-0.0353095
-0.0373948
-0.0398927
-0.0430909
-0.0469251
-0.050901
-0.0545834
-0.0575024
-0.0593572
-0.0600372
-0.0597416
-0.0587248
-0.0572569
-0.0556722
-0.0543392
-0.0535504
-0.0533573
-0.0536875
-0.054233
-0.0546768
-0.0548242
-0.0548162
-0.0551806
-0.0570405
-0.0618808
-0.0712725
-0.0865045
-0.108356
-0.136526
-0.169182
-0.202507
-0.230642
-0.245606
-0.237703
-0.196652
-0.11379
0.0148171
0.185028
0.382052
0.580445
0.747832
0.851849
0.868946
0.792127
0.634225
0.425288
0.204452
0.00894627
-0.135439
-0.219355
-0.249215
-0.241758
-0.216517
-0.189283
-0.169045
-0.157928
-0.153896
-0.153558
-0.154062
-0.154103
-0.153496
-0.152475
-0.151166
-0.149462
-0.1472
-0.144249
-0.140802
-0.137103
-0.133496
-0.130154
-0.127222
-0.12474
-0.122741
-0.121177
-0.120009
-0.11914
-0.118469
-0.117744
-0.116791
-0.115565
-0.114024
-0.112338
-0.110503
-0.108531
-0.10637
-0.103866
-0.100917
-0.0974942
-0.0937391
-0.0899172
-0.0864109
-0.0836529
-0.0818213
-0.0809179
-0.0806228
-0.0804896
-0.080109
-0.0792161
-0.0778352
-0.0762499
-0.0748822
-0.0741306
-0.0741391
-0.0748734
-0.0760171
-0.077141
-0.0778482
-0.0778412
-0.0771323
-0.0757543
-0.0739547
-0.0718728
-0.0696174
-0.0672048
-0.0645821
-0.0617917
-0.0589401
-0.0562566
-0.0540434
-0.0524742
-0.0516828
-0.051615
-0.0520878
-0.0529578
-0.0540978
-0.0554789
-0.0571436
-0.0591063
-0.0613561
-0.0637166
-0.065823
-0.0672481
-0.0674751
-0.066045
-0.0626001
-0.0570041
-0.0493075
-0.0397923
-0.0289828
-0.0175307
-0.00608384
0.00479843
0.0148043
0.023839
0.0320694
0.0396934
0.0469546
0.0539957
0.0608636
0.0674484
0.0736086
0.0790823
0.0837544
0.0875233
0.0904203
0.0925476
0.0940205
0.0949006
0.0951533
0.0946525
0.0933704
0.0913362
0.0888246
0.086198
0.0838968
0.0822766
0.0815125
0.0815011
0.0819138
0.0823551
0.082368
0.08162
0.0799729
0.0774413
0.0742013
0.0705584
0.0667753
0.0632059
0.0600065
0.0572668
0.0549531
0.0528973
0.0509578
0.0489135
0.0466417
0.04414
0.0414657
0.0387738
0.0362935
0.0342102
0.0327812
0.0321958
0.032315
0.032807
0.0331536
0.0327501
0.0311575
0.0282537
0.0243235
0.0199394
0.0157579
0.0123088
0.00985888
0.0082704
0.00725622
0.0064939
0.00571306
0.00499605
0.00445018
0.00432606
0.00473235
0.00558322
0.00660386
0.00736985
0.00745135
0.00656625
0.00470306
0.00195091
-0.00129072
-0.00464328
-0.00779069
-0.0104547
-0.0124989
-0.0138142
-0.0144097
-0.0142321
-0.0132373
-0.0114334
-0.00892036
-0.00583879
-0.00244333
0.00102517
0.00457388
0.00813052
0.0118127
0.0156114
0.0195893
0.0237104
0.027952
0.0324687
0.0373637
0.0429281
0.0493512
0.0567351
0.0647853
0.0729911
0.0806167
0.0867391
0.0905221
0.0913337
0.0890741
0.0842243
0.077818
0.0713196
0.0662628
0.0637576
0.0643712
0.0677331
0.0724193
0.0765309
0.0778331
0.0746473
0.0661014
0.0526538
0.0356386
0.0170486
-0.000981588
-0.0167984
-0.0294684
-0.0388136
-0.0452327
-0.0494074
-0.052076
-0.0539128
-0.0554658
-0.0571001
-0.059099
-0.0615091
-0.0641688
-0.0667176
-0.0687699
-0.0698711
-0.0698818
-0.0688343
-0.0669962
-0.0648422
-0.0627108
-0.0608791
-0.059426
-0.0585693
-0.0586215
-0.060216
-0.0640795
-0.0707916
-0.0806528
-0.0935494
-0.109103
-0.127013
-0.147295
-0.170158
-0.195302
-0.220954
-0.242803
-0.253457
-0.242501
-0.198359
-0.111371
0.0221948
0.196402
0.393406
0.58492
0.73725
0.819484
0.812462
0.715095
0.545743
0.337698
0.129693
-0.0447119
-0.165214
-0.227883
-0.242664
-0.227175
-0.19961
-0.173469
-0.155393
-0.146229
-0.143541
-0.144014
-0.145071
-0.145498
-0.144976
-0.143566
-0.141376
-0.13854
-0.135163
-0.131478
-0.127706
-0.124118
-0.120923
-0.118269
-0.116234
-0.114932
-0.114454
-0.114704
-0.11562
-0.116841
-0.118022
-0.118821
-0.118904
-0.118118
-0.116497
-0.114118
-0.111221
-0.108151
-0.105378
-0.103325
-0.102257
-0.101991
-0.102014
-0.10157
-0.0999155
-0.0966349
-0.0918987
-0.0862551
-0.0805859
-0.075684
-0.0720748
-0.0698977
-0.0689822
-0.069149
-0.0701511
-0.0719143
-0.074359
-0.0771496
-0.0799336
-0.0821408
-0.0831669
-0.0826671
-0.0805444
-0.0772081
-0.073381
-0.0699546
-0.0676968
-0.0670534
-0.067992
-0.0699535
-0.0722135
-0.0740046
-0.0747862
-0.0745731
-0.073667
-0.0726277
-0.0719988
-0.0721356
-0.0731359
-0.0749549
-0.0774726
-0.0805758
-0.0840943
-0.0878105
-0.0912669
-0.0939665
-0.0953762
-0.0950911
-0.0929525
-0.0889523
-0.08319
-0.0757043
-0.0664753
-0.055553
-0.0429943
-0.0293137
-0.0151999
-0.00156375
0.0108124
0.0215354
0.0306925
0.0387947
0.0465329
0.0544415
0.062666
0.0709769
0.0788024
0.0856002
0.0909488
0.0946715
0.0968422
0.0976887
0.0974034
0.0962162
0.0943376
0.0920462
0.0896472
0.0874388
0.0856882
0.0845545
0.0839248
0.0835234
0.0829099
0.0816271
0.079489
0.0766054
0.0734931
0.0707638
0.0689597
0.0682533
0.0683759
0.0686852
0.0685946
0.0676012
0.0656515
0.0630143
0.0601236
0.0573306
0.0547676
0.0524511
0.0503228
0.0482805
0.0463653
0.0447132
0.043398
0.0424271
0.0416648
0.0408936
0.0398458
0.0383735
0.0362754
0.0335814
0.0303646
0.0268219
0.0232195
0.0198423
0.0168841
0.0143692
0.0121226
0.0098645
0.007396
0.00473468
0.00207546
-0.000264386
-0.0018644
-0.00258787
-0.00242491
-0.00152312
-2.58266e-5
0.00183368
0.00395531
0.00610529
0.00799971
0.00924734
0.00939512
0.00814789
0.00553368
0.00194472
-0.00196332
-0.00531089
-0.00723298
-0.00717974
-0.0049592
-0.000744686
0.00477843
0.0107833
0.0164104
0.0209161
0.0239473
0.0255515
0.0261515
0.0264458
0.0272334
0.0291704
0.0327198
0.0379898
0.0447096
0.0524699
0.0607211
0.0688142
0.0761182
0.0820272
0.0859385
0.0874336
0.0863589
0.0828466
0.07753
0.0714975
0.0660521
0.0624455
0.0616443
0.06387
0.0684831
0.0739875
0.078302
0.0794212
0.0758664
0.0670777
0.0535481
0.0366888
0.0182552
0.00016681
-0.0160021
-0.029147
-0.0387585
-0.0448481
-0.0478287
-0.0485043
-0.0477748
-0.046647
-0.0459953
-0.0463287
-0.0478496
-0.0504509
-0.053796
-0.0574292
-0.0608332
-0.0635551
-0.0652107
-0.0655628
-0.0645233
-0.062449
-0.0601587
-0.0588088
-0.0598262
-0.064366
-0.0728836
-0.0850413
-0.099791
-0.115908
-0.132753
-0.150426
-0.169627
-0.190994
-0.213819
-0.235319
-0.250234
-0.250777
-0.22749
-0.170578
-0.0723672
0.0695634
0.249108
0.449528
0.64379
0.799085
0.884253
0.878976
0.780684
0.606651
0.389927
0.170039
-0.0177548
-0.151147
-0.224331
-0.246002
-0.233263
-0.204729
-0.175067
-0.152262
-0.138576
-0.132452
-0.130841
-0.131106
-0.131547
-0.131529
-0.13107
-0.130409
-0.129855
-0.129707
-0.129979
-0.130633
-0.131359
-0.131768
-0.131477
-0.130175
-0.12784
-0.124563
-0.120731
-0.116754
-0.113007
-0.109775
-0.107203
-0.105196
-0.103412
-0.101485
-0.099001
-0.0957827
-0.0918906
-0.0876084
-0.0834252
-0.0797878
-0.076998
-0.0751922
-0.0743638
-0.0743345
-0.0749779
-0.0761546
-0.0776532
-0.0793005
-0.0808939
-0.0823095
-0.0834405
-0.0843175
-0.0849744
-0.0854626
-0.0858054
-0.085934
-0.0857113
-0.0849329
-0.0834406
-0.0811585
-0.0780639
-0.074232
-0.0699605
-0.0656669
-0.0618822
-0.0591803
-0.0579213
-0.0582066
-0.0598158
-0.062257
-0.0649306
-0.0672955
-0.0691629
-0.0706546
-0.072094
-0.0739237
-0.0763813
-0.0795384
-0.0831938
-0.0870347
-0.0907236
-0.0938886
-0.0961888
-0.0973648
-0.0971429
-0.0952155
-0.0912505
-0.0848408
-0.075667
-0.0637017
-0.0492207
-0.0330657
-0.0164825
-0.000801773
0.0128799
0.0240228
0.0328472
0.0401181
0.0467864
0.0536629
0.0610149
0.0687348
0.0764035
0.0835485
0.0899044
0.0953655
0.100035
0.103978
0.107167
0.109541
0.111069
0.111835
0.112094
0.112012
0.111745
0.111391
0.110835
0.110075
0.109145
0.108103
0.107159
0.106425
0.105841
0.105224
0.104245
0.102656
0.100442
0.0977452
0.0948226
0.0920729
0.0896797
0.0877536
0.0862164
0.0849611
0.0839131
0.0831091
0.0824985
0.0820473
0.0815155
0.0806805
0.0792719
0.0771944
0.074537
0.0715264
0.0684321
0.0655368
0.0629447
0.0606682
0.0586381
0.0566781
0.0546598
0.0524027
0.049828
0.0469745
0.0440485
0.0412517
0.0387709
0.0366621
0.0348956
0.0332564
0.0316153
0.0297884
0.0279316
0.0261022
0.0244658
0.0230368
0.0217906
0.020594
0.0193445
0.017998
0.0165815
0.01525
0.0142164
0.0136092
0.0135023
0.013956
0.0149429
0.0165611
0.0188841
0.0220591
0.02615
0.031173
0.0369951
0.0433989
0.0500251
0.0565795
0.062749
0.0683596
0.0732253
0.0773107
0.0805742
0.0830503
0.0848955
0.0861553
0.086773
0.0865716
0.0852211
0.0824548
0.0784073
0.0738058
0.0699587
0.0683691
0.0703661
0.0761442
0.0845463
0.0931472
0.0988968
0.0992094
0.0928574
0.0801133
0.0627635
0.0432365
0.0237553
0.005868
-0.00985046
-0.0233836
-0.0350088
-0.0447851
-0.0526191
-0.0583103
-0.0618671
-0.0636962
-0.064352
-0.0645285
-0.06483
-0.0655591
-0.0667051
-0.0681237
-0.0695331
-0.0705255
-0.0707524
-0.069914
-0.0678666
-0.0648638
-0.0617509
-0.0599058
-0.061248
-0.0677766
-0.0811291
-0.102107
-0.130114
-0.16272
-0.195184
-0.220558
-0.230444
-0.215949
-0.16918
-0.0849118
0.038
0.195895
0.380105
0.577169
0.769447
0.936449
1.05647
1.10989
1.08334
0.974087
0.793004
0.563823
0.31899
0.0923526
-0.0887744
-0.209862
-0.271053
-0.284666
-0.269316
-0.243196
-0.219294
-0.203604
-0.196095
-0.19362
-0.192692
-0.191224
-0.188853
-0.186304
-0.18458
-0.184169
-0.184914
-0.186211
-0.187382
-0.188166
-0.188693
-0.189332
-0.19061
-0.192603
-0.194996
-0.197067
-0.197939
-0.196775
-0.193193
-0.187346
-0.179797
-0.171535
-0.163513
-0.156549
-0.151138
-0.147359
-0.14505
-0.143764
-0.142999
-0.142355
-0.141686
-0.141084
-0.140845
-0.141356
-0.142897
-0.145567
-0.148955
-0.152266
-0.154386
-0.154366
-0.151564
-0.145999
-0.138493
-0.130572
-0.124034
-0.120509
-0.120894
-0.125091
-0.131923
-0.139518
-0.14578
-0.149056
-0.148447
-0.143992
-0.136509
-0.127226
-0.117474
-0.108638
-0.101887
-0.0982932
-0.0985058
-0.102596
-0.110118
-0.119921
-0.130358
-0.139453
-0.145492
-0.147301
-0.144659
-0.138476
-0.130493
-0.122751
-0.11692
-0.11356
-0.111791
-0.109483
-0.104086
-0.0935407
-0.0772218
-0.0562575
-0.0332343
-0.0113739
0.00648795
0.0186768
0.0250269
0.0269447
0.0266524
0.0266012
0.0287644
0.0340045
0.0420229
0.0516673
0.0614443
0.0700544
0.0766648
0.081122
0.0836065
0.084483
0.0840473
0.0826876
0.0807774
0.0788541
0.0773753
0.0764602
0.0758966
0.0750605
0.0735003
0.0711606
0.0685117
0.0664655
0.0657552
0.0664879
0.0678925
0.06862
0.067226
0.062924
0.0558646
0.0470865
0.0381681
0.0307364
0.0260859
0.0248898
0.0271121
0.0320172
0.0381887
0.0439153
0.0475994
0.0481341
0.0453948
0.0402445
0.0341064
0.0285656
0.0246193
0.0225841
0.022038
0.0220296
0.0217068
0.0204557
0.0182766
0.0154481
0.0125311
0.00982982
0.00742452
0.00499742
0.0020009
-0.00220359
-0.00778345
-0.01417
-0.0200711
-0.0239199
-0.024412
-0.021254
-0.015377
-0.00854493
-0.0027025
0.000785456
0.00166644
0.000676169
-0.000763399
-0.00141085
-0.000650882
0.00154771
0.00479276
0.00884163
0.0135212
0.0187277
0.0240308
0.0288113
0.0322007
0.0337648
0.0337361
0.0331541
0.033532
0.0362213
0.0421089
0.0510455
0.0620982
0.0736477
0.0840994
0.0921462
0.0969734
0.0983514
0.0966326
0.0926535
0.0876514
0.0830552
0.0801922
0.0800082
0.0824906
0.0866573
0.0906242
0.0921237
0.089067
0.080248
0.0658773
0.0473101
0.0268225
0.00699043
-0.00993938
-0.0222948
-0.0294605
-0.0316393
-0.0300215
-0.0263272
-0.0225048
-0.020177
-0.0200583
-0.0218854
-0.0247213
-0.0274063
-0.0292646
-0.030266
-0.0309993
-0.0323442
-0.034781
-0.0381599
-0.0417564
-0.0448049
-0.0467518
-0.0477084
-0.0482132
-0.0490252
-0.0508689
-0.0541706
-0.0591958
-0.0664741
-0.0769904
-0.0922857
-0.113929
-0.142371
-0.175937
-0.209814
-0.235937
-0.243149
-0.218884
-0.15158
-0.0343036
0.13126
0.332102
0.543309
0.73142
0.86126
0.905227
0.851852
0.710173
0.50809
0.28469
0.079345
-0.0784705
-0.175438
-0.214601
-0.210569
-0.18237
-0.146767
-0.114559
-0.0903419
-0.074226
-0.0646156
-0.0598242
-0.0590745
-0.0619194
-0.0677831
-0.0752463
-0.0821294
-0.0862295
-0.0860837
-0.0814924
-0.0735032
-0.0641721
-0.0558499
-0.0503191
-0.0482037
-0.0489196
-0.0509108
-0.0525057
-0.0524262
-0.0501365
-0.045801
-0.0401082
-0.0340215
-0.0284127
-0.0240499
-0.0217059
-0.0219683
-0.0250423
-0.0304328
-0.0368415
-0.0423404
-0.0449255
-0.0433265
-0.0376912
-0.0296718
-0.0218633
-0.017096
-0.0171329
-0.0220152
-0.0300358
-0.0381666
-0.043161
-0.0426672
-0.0359135
-0.02395
-0.00920477
0.00519013
0.0165032
0.0230055
0.0243019
0.021249
0.0155086
0.00897529
0.00331202
-0.000370825
-0.0016394
-0.000637855
0.00201707
0.00552333
0.00913142
0.0123861
0.0150493
0.0171382
0.0184544
0.0185264
0.0166519
0.0120351
0.00426191
-0.00636387
-0.018778
-0.0312023
-0.0418223
-0.0492095
-0.0527212
-0.0523706
-0.0486773
-0.0423517
-0.0339489
-0.0236339
-0.0114814
0.002389
0.0177135
0.033934
0.0502827
0.0658622
0.0799257
0.0920106
0.102008
0.110084
0.116788
0.122825
0.128841
0.135137
0.141598
0.147461
0.151806
0.153955
0.153989
0.152912
0.152237
0.153289
0.156553
0.161469
0.166498
0.169889
0.170615
0.169025
0.166589
0.165223
0.166322
0.170139
0.175444
0.180184
0.182163
0.179977
0.173387
0.16346
0.152038
0.141209
0.132587
0.12712
0.125029
0.12588
0.128695
0.13208
0.134583
0.13511
0.133096
0.128809
0.1232
0.117502
0.112774
0.10945
0.107158
0.105157
0.102635
0.0991605
0.0950294
0.0909642
0.0878323
0.0860579
0.0853235
0.0846971
0.0830562
0.0795206
0.0739018
0.0670717
0.0605672
0.0559039
0.0539718
0.0544945
0.056137
0.0570576
0.0558587
0.052284
0.0475065
0.0437405
0.0433474
0.0477728
0.0569881
0.0692147
0.0817506
0.0917414
0.0972307
0.0975966
0.0934818
0.0864079
0.0781607
0.0701661
0.0632902
0.0582395
0.0558105
0.0569104
0.0623224
0.0723743
0.0864264
0.102957
0.119737
0.134617
0.146175
0.15412
0.159227
0.162646
0.165058
0.166149
0.164521
0.158511
0.147174
0.131222
0.113355
0.0976349
0.0882672
0.0879831
0.0968963
0.112213
0.129131
0.142413
0.14792
0.143783
0.130566
0.110687
0.0874783
0.064086
0.0428934
0.0253427
0.0121622
0.00354759
-0.000865645
-0.00196399
-0.00107682
0.000171484
0.000316163
-0.00164261
-0.0061632
-0.0129564
-0.021246
-0.0298589
-0.0374945
-0.0429805
-0.0453743
-0.0441895
-0.0395996
-0.032722
-0.0253285
-0.0193041
-0.0159371
-0.0154086
-0.0168394
-0.0186133
-0.0191908
-0.0180222
-0.0161361
-0.0159665
-0.0205892
-0.0327105
-0.0535013
-0.0819417
-0.114467
-0.145336
-0.167308
-0.17252
-0.15305
-0.101633
-0.0131508
0.113389
0.272276
0.449068
0.620608
0.758305
0.83438
0.829658
0.74048
0.581211
0.381398
0.177538
0.00282639
-0.121357
-0.189154
-0.208741
-0.196494
-0.16998
-0.142784
-0.122043
-0.109457
-0.103691
-0.102568
-0.10423
-0.10736
-0.110965
-0.114031
-0.115796
-0.116006
-0.114857
-0.112843
-0.110495
-0.107957
-0.104972
-0.10122
-0.0965889
-0.0914429
-0.0866074
-0.0829752
-0.0812997
-0.0817865
-0.0840092
-0.0870341
-0.0898075
-0.0914544
-0.0916699
-0.0907667
-0.0895303
-0.0889432
-0.0896788
-0.0917168
-0.0942806
-0.0962422
-0.0963291
-0.0938162
-0.0887779
-0.0820359
-0.0748485
-0.0684637
-0.0637374
-0.0609424
-0.0597416
-0.0594842
-0.0596005
-0.0596872
-0.0596034
-0.0594931
-0.0595279
-0.0598104
-0.0602879
-0.0607183
-0.0607491
-0.0600746
-0.0584927
-0.0560694
-0.0531329
-0.05025
-0.0480071
-0.0469347
-0.0473892
-0.0494348
-0.0529059
-0.0574594
-0.0626036
-0.067819
-0.0725823
-0.0763699
-0.0789391
-0.0803971
-0.0810243
-0.0814377
-0.0823479
-0.0841885
-0.0869837
-0.0900956
-0.092337
-0.0923921
-0.0891224
-0.0820366
-0.0714099
-0.0584472
-0.0448443
-0.0323865
-0.0225187
-0.0158282
-0.012192
-0.0107241
-0.0103655
-0.0101491
-0.00955488
-0.00855885
-0.00754052
-0.00684959
-0.00651013
-0.00599803
-0.00442915
-0.000805127
0.00551212
0.0145087
0.0256029
0.0376168
0.0491857
0.0593749
0.0677895
0.0747293
0.0806473
0.0859298
0.090519
0.0938009
0.0948455
0.0928716
0.0876725
0.0799637
0.0713421
0.0637872
0.0589742
0.0577519
0.059943
0.0643628
0.0691713
0.0725319
0.0730629
0.0701754
0.064376
0.0569546
0.0495354
0.043737
0.0406565
0.0405643
0.0430597
0.0469452
0.0507998
0.0533819
0.0538134
0.0518916
0.0478736
0.0423488
0.0360293
0.0295408
0.0232572
0.0173547
0.0119833
0.00723969
0.00333675
0.000388419
-0.00140844
-0.00202704
-0.00159494
-0.000412267
0.000985706
0.00202086
0.00207262
0.000640379
-0.00245936
-0.0070555
-0.0128278
-0.0191293
-0.0253547
-0.030956
-0.0354624
-0.0385756
-0.0400186
-0.0397417
-0.0378636
-0.0349299
-0.0316896
-0.0291127
-0.0281077
-0.0291998
-0.0324404
-0.0372691
-0.0426853
-0.0474521
-0.050361
-0.0506135
-0.0479797
-0.0427827
-0.0358288
-0.0281243
-0.0207176
-0.0144544
-0.0097245
-0.00651569
-0.00443728
-0.002846
-0.00111471
0.00134717
0.00474554
0.0089705
0.0136049
0.0179301
0.0212057
0.0228388
0.0225113
0.0203205
0.0167096
0.0124881
0.00881966
0.00685771
0.0075413
0.0111155
0.0169421
0.023334
0.0280976
0.0289988
0.0245511
0.0146396
0.000389385
-0.0161012
-0.0325253
-0.0471481
-0.0590969
-0.0685086
-0.076128
-0.0827923
-0.0892792
-0.0958362
-0.102426
-0.10877
-0.114467
-0.119308
-0.123123
-0.125981
-0.128027
-0.129422
-0.130385
-0.130909
-0.130908
-0.130333
-0.129204
-0.127789
-0.126432
-0.125463
-0.124924
-0.12459
-0.124073
-0.122938
-0.12111
-0.119075
-0.117896
-0.119284
-0.124998
-0.136617
-0.155016
-0.180075
-0.210379
-0.242567
-0.27146
-0.290003
-0.289899
-0.262325
-0.199236
-0.0952386
0.0501091
0.229959
0.428618
0.62192
0.78027
0.874465
0.883007
0.798855
0.632948
0.412445
0.174287
-0.0441962
-0.214425
-0.322257
-0.369006
-0.367844
-0.337641
-0.296638
-0.25808
-0.228909
-0.210558
-0.20108
-0.197369
-0.196596
-0.196886
-0.197404
-0.197949
-0.198468
-0.199036
-0.199573
-0.199958
-0.200055
-0.199681
-0.198787
-0.197482
-0.195845
-0.194002
-0.192033
-0.189989
-0.187738
-0.185207
-0.18232
-0.179068
-0.175455
-0.171553
-0.167363
-0.162906
-0.158243
-0.153493
-0.148954
-0.14494
-0.141738
-0.139543
-0.138376
-0.138018
-0.138152
-0.138391
-0.138449
-0.138217
-0.137696
-0.137017
-0.136412
-0.136052
-0.136008
-0.136193
-0.136529
-0.136836
-0.136883
-0.136493
-0.135582
-0.134081
-0.132068
-0.129629
-0.126987
-0.124274
-0.121572
-0.118943
-0.116452
-0.11416
-0.112265
-0.11102
-0.110627
-0.111137
-0.112436
-0.114175
-0.115986
-0.117495
-0.118546
-0.119289
-0.119974
-0.120872
-0.122164
-0.123694
-0.125175
-0.126244
-0.126511
-0.125731
-0.123674
-0.120061
-0.114517
-0.106784
-0.096862
-0.0852019
-0.0726939
-0.0605679
-0.0499526
-0.0416565
-0.0358448
-0.032176
-0.0299373
-0.0283421
-0.0267084
-0.0246603
-0.0219483
-0.0183543
-0.0136989
-0.00780504
-0.000583885
0.00780228
0.0170455
0.0266395
0.0359615
0.0446292
0.0524149
0.0592493
0.0652918
0.0706361
0.075291
0.0791536
0.0820074
0.0837066
0.0842442
0.0839198
0.0831857
0.082619
0.0826692
0.0834377
0.0846765
0.0859208
0.0865904
0.0864065
0.0853277
0.0836043
0.081597
0.0795551
0.0775157
0.0753716
0.0729682
0.070233
0.0672615
0.0643349
0.0617038
0.0595502
0.0579918
0.0569256
0.056249
0.055762
0.0552818
0.0546813
0.0538592
0.052621
0.0508001
0.0482339
0.0447552
0.0403608
0.0352825
0.0298224
0.0244753
0.0196363
0.0155362
0.0122579
0.00965414
0.00746793
0.00555845
0.00385194
0.00247988
0.00156672
0.00112382
0.00105985
0.00110843
0.000919991
0.000142553
-0.00141237
-0.00379695
-0.00692023
-0.0105869
-0.0144266
-0.0179668
-0.0206507
-0.0219194
-0.0213076
-0.0186543
-0.0141373
-0.00822051
-0.00146018
0.00564053
0.0127573
0.0197011
0.0264255
0.0328519
0.0389508
0.0446669
0.0499844
0.0550556
0.0599415
0.064574
0.0687283
0.0719265
0.0735922
0.073326
0.0709847
0.0668924
0.0617779
0.0566559
0.0525465
0.0504833
0.050989
0.0541213
0.0592889
0.0651371
0.0698498
0.0715708
0.0687995
0.0608263
0.0478969
0.0311766
0.0123683
-0.00670184
-0.0244867
-0.040002
-0.0526944
-0.0624148
-0.0693409
-0.0737804
-0.0761862
-0.0771605
-0.0772826
-0.0770952
-0.0770038
-0.0772297
-0.0777636
-0.0785342
-0.0792497
-0.0797156
-0.0797908
-0.0793559
-0.0784101
-0.0769553
-0.075104
-0.0729008
-0.0705143
-0.068182
-0.066284
-0.0653927
-0.0663775
-0.0702894
-0.0784401
-0.0920409
-0.111838
-0.13775
-0.168186
-0.199609
-0.226337
-0.240755
-0.233672
-0.195449
-0.117804
0.00332741
0.164654
0.352989
0.544815
0.709228
0.814536
0.836788
0.767659
0.618202
0.416951
0.202205
0.0112109
-0.129694
-0.21044
-0.23693
-0.225706
-0.196488
-0.16569
-0.142822
-0.130608
-0.127239
-0.129203
-0.133273
-0.137458
-0.140878
-0.143217
-0.144249
-0.143876
-0.14212
-0.139269
-0.135802
-0.132231
-0.128997
-0.126302
-0.124094
-0.122168
-0.120272
-0.118148
-0.115634
-0.112643
-0.109266
-0.105523
-0.101569
-0.0975489
-0.0937771
-0.0905445
-0.0880583
-0.0864131
-0.0854896
-0.085084
-0.0847649
-0.0843392
-0.083735
-0.083054
-0.0824505
-0.082031
-0.0817204
-0.0813279
-0.0805227
-0.0789691
-0.0765943
-0.0734375
-0.0698181
-0.0661337
-0.0626857
-0.0597685
-0.057463
-0.0558276
-0.0548483
-0.0545606
-0.0549274
-0.0557922
-0.0569306
-0.058057
-0.0588734
-0.0591032
-0.058771
-0.0580047
-0.057095
-0.0563172
-0.055892
-0.0558922
-0.0562405
-0.0567
-0.0569663
-0.0568875
-0.0563147
-0.055504
-0.0547599
-0.0544683
-0.0550249
-0.0565771
-0.0590838
-0.0622852
-0.0658056
-0.0691827
-0.0718822
-0.0734196
-0.0732659
-0.0709537
-0.0662041
-0.0590104
-0.0498221
-0.0394508
-0.0289783
-0.0194437
-0.0115336
-0.00530964
-0.000248349
0.00462785
0.0103597
0.017665
0.0265727
0.0366911
0.0471921
0.0571385
0.0659299
0.0732575
0.0792247
0.0840688
0.0881446
0.0916838
0.0947519
0.0973983
0.0994851
0.100976
0.101874
0.102199
0.10206
0.101552
0.100759
0.0997948
0.0986844
0.097494
0.0962925
0.0951923
0.0942896
0.0937155
0.0935975
0.0939324
0.0945921
0.0954559
0.0963401
0.0970539
0.0974417
0.0973466
0.0966061
0.0950989
0.0927956
0.0896869
0.0860609
0.0822475
0.0786346
0.0754896
0.0728078
0.0704108
0.0679236
0.0649181
0.0612035
0.0567858
0.0520747
0.0476719
0.044196
0.0420348
0.0412737
0.0414613
0.042039
0.0422841
0.0416312
0.0398493
0.0370289
0.0335105
0.0297382
0.0260985
0.0228479
0.0200816
0.0178203
0.0159991
0.0143951
0.012907
0.0113387
0.00950633
0.00732367
0.00482485
0.00229025
0.000189265
-0.000904874
-0.000554968
0.00149411
0.00510724
0.00977646
0.0149796
0.0201361
0.025023
0.0296252
0.034167
0.0387707
0.0435214
0.0481362
0.0522753
0.0555899
0.0579477
0.0594151
0.060345
0.0612421
0.0624555
0.0640979
0.0658883
0.0673728
0.068005
0.0672895
0.0651385
0.0618312
0.0581947
0.0552313
0.0540492
0.05537
0.0593838
0.0653214
0.0715239
0.0758902
0.0764198
0.0718247
0.0618362
0.0474078
0.0300942
0.0117499
-0.00607008
-0.0223768
-0.0367053
-0.0488841
-0.0589389
-0.0667951
-0.0723893
-0.0758932
-0.0776392
-0.0780991
-0.0777314
-0.0768741
-0.0757788
-0.0745777
-0.0733945
-0.0722949
-0.0715006
-0.0710527
-0.0709025
-0.0709092
-0.0709508
-0.0711655
-0.0722491
-0.075531
-0.0826855
-0.0954636
-0.114994
-0.141128
-0.171928
-0.203614
-0.230948
-0.248126
-0.249858
-0.231741
-0.190147
-0.12179
-0.0239686
0.10447
0.260726
0.435448
0.610937
0.762121
0.86118
0.884756
0.821854
0.678974
0.479779
0.259335
0.0545661
-0.105583
-0.206846
-0.250888
-0.251522
-0.227905
-0.197672
-0.172483
-0.156939
-0.15032
-0.149218
-0.15004
-0.150402
-0.149467
-0.147344
-0.144709
-0.142287
-0.140686
-0.140093
-0.140395
-0.141092
-0.141522
-0.141086
-0.13951
-0.136908
-0.133699
-0.130495
-0.127762
-0.125777
-0.124505
-0.123702
-0.123014
-0.122093
-0.1206
-0.118348
-0.115292
-0.111515
-0.107371
-0.103223
-0.0993818
-0.0962136
-0.093827
-0.0921776
-0.091079
-0.0904362
-0.0900518
-0.089863
-0.0897232
-0.0894922
-0.088982
-0.0879914
-0.0863475
-0.0839593
-0.0809551
-0.0775014
-0.073989
-0.0707972
-0.0682313
-0.0664997
-0.0655926
-0.0653933
-0.0655819
-0.0660388
-0.0666023
-0.0674349
-0.0687241
-0.0705004
-0.0726188
-0.0747137
-0.0764104
-0.0773363
-0.0774442
-0.0769727
-0.0764226
-0.0762932
-0.0769075
-0.0783645
-0.0805529
-0.0831563
-0.0859197
-0.0887376
-0.0915456
-0.0942839
-0.096779
-0.0984691
-0.0986703
-0.0965345
-0.0915663
-0.0836383
-0.0731994
-0.0611326
-0.0485692
-0.0365906
-0.0258871
-0.0166991
-0.00876874
-0.00150754
0.00577595
0.0137169
0.0226432
0.0323777
0.0422871
0.0515941
0.0595881
0.0658531
0.0704944
0.0740016
0.0769353
0.0797083
0.0825052
0.0850355
0.0869816
0.0879906
0.0880576
0.0874012
0.0863933
0.0854134
0.0847325
0.0844812
0.0846835
0.0853543
0.0864763
0.0878228
0.0890895
0.0897923
0.0893196
0.0874169
0.0840243
0.079506
0.0744688
0.0696136
0.0654657
0.0621442
0.0595539
0.0573188
0.0550653
0.0525602
0.0497611
0.0467976
0.0439127
0.0413424
0.0392293
0.0376271
0.0364507
0.0356451
0.0351426
0.0348787
0.0348353
0.034976
0.035133
0.0350957
0.0346391
0.0334733
0.0315671
0.0288846
0.0256408
0.0221112
0.0186034
0.0153898
0.012618
0.0103969
0.00865772
0.0073471
0.00633088
0.0054971
0.00476366
0.00413052
0.00371209
0.00379426
0.00472625
0.00685852
0.0103658
0.0153391
0.0215377
0.0285841
0.036017
0.0433205
0.050149
0.0561958
0.0613461
0.0657681
0.0696947
0.0735416
0.0775331
0.0817906
0.0860404
0.0897395
0.0921859
0.0926452
0.0907378
0.0867706
0.081552
0.0764952
0.0731642
0.072683
0.0753002
0.0800506
0.0850542
0.0880012
0.0870382
0.0814088
0.0716227
0.0591231
0.0456315
0.0326246
0.0207566
0.0099832
-0.000147593
-0.0102003
-0.0202652
-0.0301457
-0.039305
-0.0472586
-0.0537247
-0.0586084
-0.062012
-0.0642331
-0.0656148
-0.066552
-0.0674096
-0.0684623
-0.0699154
-0.0718124
-0.0740198
-0.0763659
-0.0784007
-0.0797444
-0.0801209
-0.079292
-0.0773701
-0.0749077
-0.0730513
-0.0734948
-0.0783118
-0.0894769
-0.10846
-0.135285
-0.167786
-0.201186
-0.227849
-0.237459
-0.218173
-0.158825
-0.052167
0.101093
0.289083
0.48778
0.664113
0.783123
0.817519
0.756495
0.610086
0.40726
0.187914
-0.0087655
-0.154689
-0.238803
-0.266583
-0.254639
-0.222979
-0.188391
-0.160891
-0.143733
-0.135689
-0.133717
-0.13481
-0.137099
-0.139598
-0.141872
-0.143702
-0.144852
-0.145278
-0.144993
-0.144058
-0.142549
-0.140588
-0.138262
-0.135756
-0.133321
-0.131218
-0.129667
-0.128691
-0.12814
-0.127651
-0.126844
-0.125325
-0.122972
-0.119851
-0.116241
-0.112576
-0.109249
-0.106617
-0.104734
-0.103561
-0.102809
-0.102011
-0.100765
-0.0986956
-0.095607
-0.0915801
-0.0868877
-0.0820066
-0.0775157
-0.0739335
-0.0716088
-0.0706977
-0.0709425
-0.0719518
-0.0731337
-0.0739044
-0.0737696
-0.0725137
-0.0700833
-0.0666924
-0.0627825
-0.0588521
-0.0555304
-0.0533884
-0.0528053
-0.0539008
-0.0563534
-0.0596373
-0.0630319
-0.0659298
-0.0680281
-0.0693281
-0.0702195
-0.0711152
-0.0723336
-0.0740649
-0.0762429
-0.0785442
-0.0807625
-0.0827607
-0.084519
-0.0862594
-0.088234
-0.090537
-0.0930505
-0.0953495
-0.0966956
-0.09618
-0.0927969
-0.0857575
-0.0747451
-0.0599639
-0.0422597
-0.0229541
-0.00357188
0.0144018
0.0298758
0.042303
0.0518011
0.0588638
0.064252
0.0687395
0.0728511
0.0767947
0.0805636
0.0840121
0.0869372
0.0892486
0.0909247
0.0920104
0.0925528
0.0926307
0.0924582
0.0922085
0.0920665
0.0921051
0.0921685
0.0919214
0.0909069
0.0888149
0.0856158
0.0816602
0.0775553
0.0739609
0.0713906
0.0700183
0.0696708
0.0699334
0.0703365
0.0704661
0.0700352
0.0689052
0.0669902
0.0642782
0.0608798
0.0570931
0.0533572
0.0501664
0.0479134
0.0467758
0.046607
0.0470453
0.0476018
0.0479331
0.0478104
0.0472728
0.046366
0.0451391
0.0436349
0.0417541
0.0393931
0.0365655
0.0333455
0.0298211
0.0262788
0.0229471
0.019991
0.0175365
0.0155785
0.0140216
0.0128613
0.012052
0.0117941
0.0124505
0.0143066
0.0176923
0.0227174
0.0291733
0.0366571
0.044579
0.0523821
0.0595209
0.0657386
0.0709943
0.075375
0.0791816
0.0826963
0.0861382
0.0895865
0.0930358
0.0962402
0.0988405
0.100452
0.100618
0.0991698
0.0961473
0.0918519
0.0868501
0.081911
0.0777462
0.0752318
0.0749445
0.0772285
0.0820035
0.0885676
0.0955795
0.101263
0.103804
0.101759
0.0945787
0.0826568
0.067244
0.0500339
0.0326757
0.0164282
0.00201034
-0.010338
-0.0207879
-0.0294945
-0.0366152
-0.0424261
-0.0470569
-0.0507889
-0.053788
-0.0563718
-0.0586368
-0.0607659
-0.062795
-0.0647574
-0.0666431
-0.0683018
-0.0694609
-0.0697566
-0.0688753
-0.0666182
-0.0631443
-0.0590366
-0.0555036
-0.0543078
-0.0575365
-0.0672216
-0.0848355
-0.110525
-0.142178
-0.175055
-0.201354
-0.210413
-0.189867
-0.127861
-0.0166861
0.143464
0.340765
0.550942
0.740015
0.871522
0.916293
0.861482
0.715587
0.507018
0.276284
0.0645219
-0.0975977
-0.196439
-0.235792
-0.231824
-0.205218
-0.174076
-0.149659
-0.135929
-0.131582
-0.132989
-0.1365
-0.139634
-0.141373
-0.141585
-0.14045
-0.138427
-0.135923
-0.13343
-0.131333
-0.129815
-0.128893
-0.128284
-0.127549
-0.126207
-0.123907
-0.120599
-0.11648
-0.11201
-0.107763
-0.104106
-0.10127
-0.0992411
-0.0978629
-0.0969725
-0.0964693
-0.0962617
-0.0962169
-0.0961606
-0.0957222
-0.0945788
-0.0925148
-0.0894955
-0.0857483
-0.0815671
-0.077294
-0.0732315
-0.0695852
-0.0664857
-0.0640115
-0.062308
-0.0614072
-0.0612249
-0.0615929
-0.0621535
-0.0625075
-0.0623518
-0.0614193
-0.0596413
-0.0571707
-0.0542971
-0.051364
-0.0487841
-0.0468413
-0.0457073
-0.0454633
-0.0460305
-0.0473354
-0.0493171
-0.0519601
-0.0552286
-0.0591022
-0.0634404
-0.0680165
-0.0725728
-0.0768572
-0.0806882
-0.0838947
-0.0863982
-0.0880552
-0.0888548
-0.0888223
-0.0880427
-0.086732
-0.0850132
-0.0828651
-0.0799186
-0.0755754
-0.0690648
-0.0596937
-0.0471052
-0.031366
-0.0131403
0.00659722
0.0266656
0.0459985
0.0637509
0.0794337
0.0928077
0.103857
0.112698
0.119559
0.12479
0.128778
0.131954
0.134589
0.136773
0.13844
0.139401
0.139615
0.13915
0.138376
0.137638
0.137327
0.137691
0.138647
0.139933
0.141128
0.141793
0.141492
0.139994
0.137236
0.13335
0.128728
0.123887
0.11937
0.115617
0.11274
0.110743
0.10934
0.108197
0.107032
0.105717
0.104217
0.102554
0.100717
0.098647
0.0962708
0.0936244
0.0907489
0.0877121
0.0846
0.0814157
0.0780619
0.0744385
0.0705673
0.066475
0.0623704
0.0584316
0.0548127
0.0515296
0.0485966
0.0459036
0.0434882
0.0413547
0.0395613
0.0381298
0.0371215
0.0364819
0.0361536
0.0361048
0.0363747
0.0371831
0.0388336
0.0416641
0.0459037
0.0515352
0.0581617
0.0651638
0.0717805
0.0773842
0.0815752
0.0843408
0.0860238
0.0872918
0.0888187
0.0912267
0.0946767
0.0989926
0.10356
0.107486
0.109842
0.10997
0.107625
0.103258
0.0978614
0.0927032
0.0891362
0.0882114
0.0902325
0.0945957
0.0997661
0.103565
0.103804
0.0988757
0.088308
0.0727604
0.0538137
0.0335283
0.0137856
-0.00401947
-0.0191464
-0.0314415
-0.0409414
-0.0478285
-0.0523412
-0.0549314
-0.0561988
-0.0568318
-0.0573738
-0.0581844
-0.0592947
-0.060394
-0.0611217
-0.0612673
-0.0608707
-0.0601519
-0.0594489
-0.059076
-0.059126
-0.0594406
-0.0596427
-0.0593129
-0.0581112
-0.0559731
-0.0531654
-0.0504557
-0.0490731
-0.0505524
-0.056669
-0.0689653
-0.0884634
-0.115213
-0.147725
-0.182415
-0.213523
-0.233252
-0.232234
-0.200507
-0.129429
-0.0140702
0.143816
0.333171
0.532792
0.713402
0.843055
0.894805
0.854622
0.726816
0.534058
0.311922
0.099216
-0.0722079
-0.184893
-0.237878
-0.243496
-0.2209
-0.188967
-0.161002
-0.143102
-0.135387
-0.13463
-0.136979
-0.139595
-0.141204
-0.141599
-0.141142
-0.140188
-0.139013
-0.137646
-0.136068
-0.13423
-0.132013
-0.129309
-0.126029
-0.122213
-0.118079
-0.113829
-0.109839
-0.106329
-0.103516
-0.101449
-0.100046
-0.0991949
-0.098789
-0.0987126
-0.0988093
-0.099
-0.0990765
-0.0988423
-0.0981097
-0.0968036
-0.094977
-0.0929048
-0.0908056
-0.0890156
-0.0876984
-0.0868494
-0.0863367
-0.0859355
-0.0854296
-0.084605
-0.0832575
-0.081366
-0.0789099
-0.0759853
-0.0727351
-0.0693665
-0.0662068
-0.0634537
-0.0613145
-0.0598729
-0.0590886
-0.0588522
-0.0590544
-0.0595404
-0.060278
-0.061226
-0.0623137
-0.0634584
-0.0645288
-0.0653574
-0.0657854
-0.0657642
-0.0654273
-0.0649574
-0.0647084
-0.0649399
-0.0659167
-0.0676735
-0.0700145
-0.0727061
-0.0753284
-0.0775587
-0.0791458
-0.0799483
-0.079845
-0.0786123
-0.0760009
-0.0717181
-0.0654769
-0.0572779
-0.0472513
-0.0358414
-0.0236511
-0.0111744
0.00097825
0.0124366
0.022908
0.0322134
0.0403323
0.0473395
0.0534642
0.0589977
0.064312
0.0696864
0.0751608
0.0806341
0.0857961
0.0902534
0.0937342
0.0960912
0.0973821
0.0977079
0.0972317
0.0961348
0.0945126
0.0925413
0.0903509
0.0881609
0.086176
0.0844303
0.082935
0.0815138
0.0799843
0.0781801
0.0760857
0.0737328
0.0713352
0.069064
0.0670691
0.0653334
0.0638799
0.0626009
0.0613955
0.060213
0.0590018
0.0577064
0.0562143
0.0544998
0.052645
0.0508078
0.0492088
0.0479805
0.0470543
0.046171
0.044978
0.0431532
0.0405613
0.0373631
0.0338832
0.0305046
0.0274845
0.0248747
0.0226606
0.0207288
0.0190619
0.0178744
0.0171021
0.0167015
0.0162392
0.0151479
0.012905
0.0092159
0.00442446
-0.000460828
-0.00423638
-0.00570895
-0.00422066
0.000126922
0.00654362
0.0138193
0.0207482
0.0265175
0.0309294
0.0341955
0.0368226
0.0393176
0.0419819
0.0448406
0.0477377
0.0505341
0.0532887
0.0561189
0.059519
0.0638235
0.0692357
0.075518
0.0820291
0.0879006
0.0922896
0.0944322
0.0940816
0.0914155
0.0870141
0.0817706
0.0767723
0.0730805
0.0715979
0.0727474
0.0761092
0.0804676
0.0839775
0.0845993
0.0807104
0.0717065
0.0580357
0.0410723
0.0225922
0.0043437
-0.0124319
-0.0270089
-0.0390255
-0.0483346
-0.0550009
-0.0591448
-0.061194
-0.0616993
-0.061317
-0.0606381
-0.0600708
-0.0597841
-0.0598643
-0.0602459
-0.0608194
-0.0614853
-0.0621157
-0.0625444
-0.0625454
-0.0619921
-0.0608467
-0.0593692
-0.0580772
-0.0577441
-0.0593212
-0.0636345
-0.0711339
-0.0818808
-0.0957748
-0.112858
-0.133336
-0.157518
-0.185178
-0.214798
-0.242844
-0.263548
-0.268954
-0.249684
-0.196107
-0.100727
0.0385983
0.21553
0.413196
0.604592
0.756855
0.839012
0.830996
0.730871
0.55683
0.342848
0.129256
-0.048623
-0.16946
-0.229225
-0.238895
-0.217636
-0.185117
-0.155806
-0.136564
-0.127875
-0.126567
-0.128698
-0.131333
-0.132954
-0.133278
-0.132536
-0.13102
-0.128929
-0.126379
-0.123328
-0.11985
-0.115993
-0.111912
-0.107817
-0.103969
-0.100508
-0.0975129
-0.0949489
-0.0926383
-0.0906082
-0.0889272
-0.0877494
-0.0872844
-0.0875419
-0.0883302
-0.0891304
-0.0893393
-0.0884109
-0.0860124
-0.0821565
-0.0772057
-0.0717787
-0.0665352
-0.0619028
-0.0580744
-0.0549669
-0.0522868
-0.049789
-0.0473815
-0.0451558
-0.0434579
-0.0426102
-0.0428822
-0.0442782
-0.0466365
-0.0494848
-0.0523051
-0.0545664
-0.0559001
-0.0561442
-0.0553798
-0.0538307
-0.0519111
-0.0499671
-0.0483821
-0.047366
-0.0470413
-0.0473759
-0.0482523
-0.049498
-0.0508081
-0.0519052
-0.0524607
-0.0522951
-0.0514594
-0.0503552
-0.0495184
-0.0496997
-0.0513893
-0.0548412
-0.0597391
-0.0654755
-0.071208
-0.0761565
-0.0798252
-0.0818432
-0.0820714
-0.0803781
-0.0765166
-0.0703724
-0.0617628
-0.0509551
-0.0385652
-0.0256166
-0.0132396
-0.0025217
0.00596603
0.0122814
0.0170144
0.0211832
0.025767
0.0315383
0.0387508
0.0472357
0.0564317
0.0656476
0.074148
0.0813433
0.0868896
0.0905803
0.092534
0.0928948
0.0919745
0.0901533
0.0877519
0.0851825
0.0826739
0.0803972
0.0784223
0.0767271
0.0750951
0.0734952
0.0719061
0.0703965
0.069175
0.0682642
0.0677094
0.0672702
0.0666729
0.065587
0.0637783
0.0612831
0.058391
0.0555847
0.0532443
0.0517174
0.0509153
0.0505363
0.0500955
0.0490794
0.0472007
0.0444625
0.04114
0.0376853
0.0345133
0.0318302
0.0297027
0.0279646
0.0263336
0.024563
0.0224871
0.0201855
0.0177327
0.015369
0.0132832
0.01162
0.0104558
0.00974632
0.00927891
0.00882216
0.00819876
0.00716297
0.00576641
0.00415978
0.00254463
0.00118928
0.000242242
-0.000251761
-0.000419136
-0.000429852
-0.000503375
-0.000673592
-0.000834093
-0.000833492
-0.000412445
0.000699731
0.00261368
0.00528324
0.00854184
0.0121403
0.0158195
0.0194603
0.0229901
0.0263966
0.029758
0.0331563
0.0367299
0.0407555
0.0454986
0.0511081
0.0575177
0.0642422
0.0705433
0.0754682
0.0782781
0.0786281
0.0769646
0.0742646
0.0718374
0.0709756
0.0724297
0.0759958
0.0805294
0.0840914
0.0845803
0.0803334
0.07072
0.0561803
0.0381569
0.0185757
-0.000738632
-0.0185196
-0.0340998
-0.0472688
-0.0580568
-0.066529
-0.072677
-0.0765574
-0.0784184
-0.0787896
-0.0782965
-0.0774186
-0.0765033
-0.075614
-0.074641
-0.0734768
-0.0721838
-0.07084
-0.0695454
-0.0682487
-0.0668602
-0.0654136
-0.064295
-0.0643168
-0.066595
-0.0720592
-0.0811183
-0.0932091
-0.107184
-0.12187
-0.136734
-0.152279
-0.169821
-0.190426
-0.213617
-0.235967
-0.250771
-0.24816
-0.216345
-0.14422
-0.0248326
0.14097
0.341422
0.552928
0.742705
0.875389
0.922095
0.86935
0.724411
0.514435
0.279313
0.0605054
-0.10997
-0.216778
-0.262162
-0.261433
-0.235308
-0.202603
-0.175617
-0.159012
-0.151822
-0.150392
-0.150815
-0.150556
-0.148786
-0.145887
-0.142685
-0.140044
-0.138424
-0.137823
-0.137826
-0.13794
-0.137622
-0.136541
-0.134572
-0.131836
-0.128498
-0.124876
-0.121326
-0.11819
-0.115901
-0.114715
-0.114733
-0.115719
-0.117088
-0.118205
-0.118395
-0.117352
-0.115141
-0.112136
-0.108824
-0.105516
-0.102328
-0.0991305
-0.0958318
-0.0923189
-0.0887962
-0.085462
-0.0826348
-0.0803989
-0.078834
-0.0777841
-0.077143
-0.0766331
-0.0759893
-0.0750117
-0.0735494
-0.0716315
-0.0695371
-0.0677239
-0.0667245
-0.0669403
-0.0684915
-0.0711818
-0.0745531
-0.0780382
-0.0811214
-0.0834619
-0.0849162
-0.0854543
-0.0851679
-0.0842973
-0.083114
-0.0819853
-0.0811693
-0.0809798
-0.0815218
-0.0828984
-0.0850544
-0.0879907
-0.0916436
-0.0959607
-0.100841
-0.106095
-0.111402
-0.116396
-0.120565
-0.123396
-0.124287
-0.122646
-0.118011
-0.110124
-0.099153
-0.0856457
-0.0704514
-0.0547058
-0.0392974
-0.0249477
-0.0118319
0.000275259
0.0118328
0.0233489
0.0350462
0.0467767
0.0580509
0.0682998
0.0770203
0.0840099
0.0894004
0.0935856
0.0969599
0.0998133
0.102165
0.103925
0.104987
0.105282
0.104929
0.104105
0.103063
0.101956
0.100826
0.0997843
0.0988849
0.0982727
0.0980932
0.098391
0.0990169
0.0996653
0.0999297
0.0994308
0.0979906
0.0957168
0.092929
0.089959
0.0870451
0.0841688
0.0811234
0.0776228
0.073587
0.0692628
0.0651163
0.0617885
0.059806
0.0593759
0.0603252
0.0620364
0.0637955
0.0648973
0.0649458
0.0638716
0.0618736
0.0593731
0.0568606
0.0547096
0.0530866
0.0519925
0.0512806
0.0506134
0.0497005
0.0483762
0.0466298
0.0446345
0.0426007
0.0407372
0.0389973
0.0372124
0.0351432
0.0326846
0.029933
0.0272733
0.0251054
0.023803
0.0235942
0.0243893
0.0258246
0.0274477
0.0288083
0.0296089
0.029698
0.0291956
0.0283946
0.0276858
0.0274342
0.0278577
0.0289197
0.0304367
0.0322005
0.0340339
0.036018
0.0383456
0.0414187
0.045534
0.0507879
0.0571258
0.0642821
0.0719294
0.0797589
0.0875096
0.0948491
0.101357
0.106587
0.110102
0.111691
0.111333
0.109333
0.106239
0.102524
0.0986385
0.0949256
0.0917333
0.0895274
0.0887501
0.0897677
0.0925439
0.0963873
0.100021
0.101765
0.100174
0.0944454
0.0846914
0.071993
0.0579346
0.0440677
0.0314765
0.0204711
0.0108161
0.00194971
-0.00651994
-0.014694
-0.0222557
-0.0287708
-0.0340335
-0.037957
-0.0408496
-0.0431057
-0.0451289
-0.0471306
-0.0491097
-0.0509429
-0.0524525
-0.053603
-0.0544368
-0.0550245
-0.0554314
-0.0554834
-0.0549706
-0.0537242
-0.0518659
-0.0499013
-0.0489934
-0.0507559
-0.0570834
-0.069544
-0.0890811
-0.115516
-0.147053
-0.179713
-0.207329
-0.221797
-0.21332
-0.171657
-0.0880898
0.041492
0.213454
0.413879
0.618121
0.794073
0.908582
0.936285
0.867482
0.712215
0.498771
0.266318
0.0542365
-0.108066
-0.207394
-0.247194
-0.242989
-0.215201
-0.182181
-0.155736
-0.140301
-0.134814
-0.135585
-0.138662
-0.141407
-0.142813
-0.143029
-0.142647
-0.142152
-0.141778
-0.141348
-0.140571
-0.138969
-0.13641
-0.132993
-0.129123
-0.125452
-0.122592
-0.120866
-0.120359
-0.120714
-0.121419
-0.121907
-0.121754
-0.120628
-0.118423
-0.115146
-0.110985
-0.106232
-0.101286
-0.0965676
-0.0925473
-0.0894904
-0.0875285
-0.0865487
-0.0862641
-0.0863779
-0.0865408
-0.0865494
-0.0862081
-0.085481
-0.0844177
-0.0830384
-0.0814772
-0.0799402
-0.0786029
-0.0776127
-0.076976
-0.0765039
-0.0758566
-0.0747189
-0.0728613
-0.0702838
-0.0672638
-0.0641724
-0.0614439
-0.0594412
-0.0582397
-0.0577984
-0.0579365
-0.058399
-0.0590456
-0.0597786
-0.0606697
-0.0618022
-0.0632966
-0.0652119
-0.0675139
-0.0700601
-0.0726914
-0.0752307
-0.0775216
-0.0794863
-0.0811149
-0.0824354
-0.0834163
-0.0839684
-0.0838094
-0.0826176
-0.0799292
-0.0754095
-0.0688837
-0.060442
-0.0504264
-0.0393971
-0.0278918
-0.0163454
-0.00506609
0.0058248
0.0164644
0.0269129
0.0371219
0.046936
0.0561121
0.0642786
0.071282
0.0771669
0.0821219
0.0865284
0.0907414
0.0949443
0.099077
0.102982
0.106381
0.109168
0.111417
0.113323
0.115165
0.117165
0.119351
0.121519
0.123371
0.124367
0.124161
0.12263
0.119914
0.116289
0.112288
0.108337
0.104758
0.10177
0.0994465
0.0976543
0.0963129
0.0952714
0.0943939
0.0935625
0.0926954
0.091697
0.0905798
0.0893485
0.0880202
0.0866138
0.0851582
0.0835615
0.0817583
0.0796459
0.0771358
0.0742101
0.0709679
0.0675468
0.06405
0.0606671
0.0574727
0.0546219
0.0521495
0.0500858
0.0482933
0.0466797
0.0450276
0.0431577
0.041013
0.0386697
0.0363975
0.0345441
0.0333345
0.0328835
0.0329997
0.0333476
0.0334344
0.0329979
0.0319262
0.030472
0.0289287
0.0276511
0.0266674
0.0257845
0.0246405
0.0229457
0.020622
0.0179093
0.01541
0.0137872
0.0136648
0.0152647
0.01842
0.0225264
0.0268165
0.0305844
0.0334198
0.035335
0.0366993
0.0381459
0.0402063
0.0432185
0.0472081
0.0520587
0.0575696
0.0635163
0.0698336
0.0764283
0.0830948
0.089436
0.094875
0.0987397
0.100534
0.0999793
0.0972947
0.0930104
0.0879331
0.0830026
0.0790563
0.0768262
0.0766488
0.0785914
0.0820895
0.0860495
0.088954
0.0890919
0.0852391
0.0769004
0.0646157
0.0496159
0.0334747
0.0176171
0.002984
-0.0100189
-0.0212819
-0.0307789
-0.0384389
-0.0442216
-0.0482302
-0.0507662
-0.0525273
-0.0540865
-0.0559628
-0.0583809
-0.0612338
-0.0641831
-0.0668093
-0.0688653
-0.0701485
-0.0706796
-0.0704778
-0.0695517
-0.068007
-0.0660374
-0.0640247
-0.0626251
-0.0627525
-0.0654201
-0.0715538
-0.0817553
-0.0963381
-0.115456
-0.138905
-0.166056
-0.195524
-0.224911
-0.250555
-0.267823
-0.271202
-0.254672
-0.21197
-0.137134
-0.0258872
0.122271
0.301338
0.496876
0.685697
0.838866
0.927773
0.931919
0.845584
0.680854
0.465391
0.235694
0.0276539
-0.132204
-0.231789
-0.27378
-0.271823
-0.244264
-0.208266
-0.175816
-0.15256
-0.138977
-0.132553
-0.130116
-0.129123
-0.128452
-0.1279
-0.127701
-0.128047
-0.128959
-0.130163
-0.13134
-0.132177
-0.132388
-0.131811
-0.13032
-0.127881
-0.124689
-0.120998
-0.117248
-0.113831
-0.111023
-0.108812
-0.106953
-0.105055
-0.102654
-0.0995755
-0.095885
-0.0919931
-0.0883384
-0.0853222
-0.0829879
-0.0811457
-0.0795704
-0.0780337
-0.0765978
-0.0755912
-0.0753914
-0.076148
-0.0777202
-0.0795982
-0.0811473
-0.0818152
-0.081295
-0.0797135
-0.0773733
-0.0747022
-0.0719457
-0.0691586
-0.066257
-0.0631121
-0.0596895
-0.0561286
-0.0527184
-0.0497903
-0.0475889
-0.0461937
-0.0455404
-0.0454886
-0.0458569
-0.0465115
-0.0472765
-0.0479707
-0.0483933
-0.0484312
-0.0481192
-0.0477465
-0.0477854
-0.0487841
-0.0511522
-0.054968
-0.059991
-0.0657238
-0.0714844
-0.0767928
-0.0812476
-0.084541
-0.0864098
-0.0864335
-0.0841921
-0.0792444
-0.0714693
-0.0611165
-0.0489304
-0.035971
-0.0233418
-0.0120473
-0.00268438
0.0046052
0.0100628
0.0141998
0.0175136
0.0205022
0.0234665
0.0266788
0.0303212
0.0345368
0.0395133
0.0453558
0.051965
0.0591136
0.0663807
0.0733243
0.0795105
0.0845961
0.0884206
0.0908531
0.0919517
0.0919088
0.0911382
0.090107
0.0893361
0.089162
0.0896577
0.090574
0.0914744
0.0918958
0.0915149
0.0903799
0.0887292
0.0869258
0.085249
0.0838631
0.0826243
0.0813103
0.0796324
0.0774175
0.0745576
0.0711755
0.0673869
0.0633792
0.0593908
0.055589
0.0522354
0.0494416
0.0472322
0.045477
0.0439921
0.0425185
0.0409035
0.0391163
0.0372618
0.0354846
0.033882
0.0325075
0.0313209
0.0301861
0.0290649
0.0278578
0.026517
0.0249892
0.0231585
0.0208447
0.0180438
0.0146998
0.0110229
0.00736247
0.00400016
0.00128888
-0.000744368
-0.00220502
-0.00343631
-0.00469839
-0.00630521
-0.00827858
-0.0105842
-0.0130763
-0.0155241
-0.0178228
-0.0197032
-0.0210011
-0.0215648
-0.0213418
-0.0204009
-0.0189596
-0.0172775
-0.015527
-0.0137954
-0.0119527
-0.00980203
-0.00706449
-0.00355234
0.000791217
0.00590837
0.0115871
0.0175652
0.0234918
0.0290237
0.033881
0.0379152
0.0411575
0.0439057
0.0466168
0.0498248
0.053972
0.0593109
0.0656423
0.0724098
0.0787825
0.0837569
0.0865093
0.0866777
0.0843622
0.0802737
0.0754982
0.0710883
0.0679163
0.0664202
0.0666126
0.0683584
0.0713939
0.0753646
0.0797124
0.0834872
0.0853735
0.0840021
0.0782926
0.0678813
0.0533486
0.0358954
0.0172254
-0.00112019
-0.0178634
-0.0321925
-0.0436263
-0.0519448
-0.0571512
-0.0596653
-0.0601695
-0.0596641
-0.059231
-0.0595472
-0.0610111
-0.0634654
-0.0664065
-0.0693495
-0.0718358
-0.0736995
-0.0750095
-0.0759386
-0.0766054
-0.0769843
-0.0769478
-0.076381
-0.0753536
-0.0742088
-0.0736984
-0.0749823
-0.0794649
-0.0884889
-0.103057
-0.123553
-0.149345
-0.178512
-0.207541
-0.231134
-0.242298
-0.232454
-0.192069
-0.112667
0.0102982
0.174102
0.365778
0.56165
0.730243
0.838944
0.862726
0.792075
0.637245
0.426371
0.198245
-0.00828713
-0.16444
-0.257514
-0.291356
-0.281751
-0.249221
-0.211984
-0.181791
-0.162813
-0.153699
-0.150519
-0.149338
-0.147832
-0.145578
-0.143254
-0.141816
-0.141641
-0.142454
-0.143511
-0.144011
-0.143411
-0.141751
-0.139435
-0.137142
-0.135319
-0.13413
-0.133364
-0.132675
-0.131559
-0.129771
-0.127199
-0.123919
-0.120168
-0.116166
-0.112176
-0.108389
-0.10499
-0.102026
-0.0994622
-0.0971543
-0.0949773
-0.0926492
-0.0900474
-0.0871086
-0.083954
-0.0808184
-0.0779441
-0.0755085
-0.0736003
-0.0721223
-0.0710765
-0.0704021
-0.070241
-0.0706162
-0.0715663
-0.0727537
-0.0736593
-0.0736953
-0.0723608
-0.0695562
-0.0656737
-0.0614507
-0.0577198
-0.0550489
-0.0535815
-0.0530089
-0.0526629
-0.0519688
-0.0505175
-0.0484125
-0.0461422
-0.0443658
-0.0437767
-0.0447255
-0.047113
-0.0505412
-0.0543176
-0.0578535
-0.0607391
-0.0630278
-0.0649547
-0.0669752
-0.069393
-0.0720306
-0.0744646
-0.0759516
-0.0757841
-0.0735253
-0.0690365
-0.0626283
-0.0549114
-0.0466397
-0.0385878
-0.0313784
-0.025439
-0.0209312
-0.0176133
-0.0149798
-0.0123298
-0.00900749
-0.00463543
0.000849908
0.00721378
0.0140135
0.0207681
0.0271827
0.0330853
0.0385698
0.0438513
0.0491249
0.0545483
0.0601206
0.0657358
0.0711498
0.0760939
0.0802528
0.0834502
0.0856055
0.0867973
0.0873232
0.0874926
0.0876255
0.0879105
0.088358
0.0887166
0.0886445
0.0878523
0.0862628
0.0840119
0.0814886
0.0790418
0.076876
0.0749869
0.073126
0.0709893
0.0683229
0.0651722
0.0617968
0.0584295
0.055404
0.0526568
0.0500256
0.0471256
0.0437705
0.0399853
0.0359767
0.0321304
0.0288504
0.0263597
0.0247005
0.0237786
0.0233881
0.0232969
0.0231823
0.0227222
0.0215082
0.0191989
0.0157319
0.0113176
0.00646338
0.0019582
-0.0014502
-0.00323228
-0.00336209
-0.00212365
-0.000330234
0.00121815
0.00175397
0.000921603
-0.00125299
-0.00442126
-0.00802519
-0.0115707
-0.0146955
-0.0172163
-0.0191515
-0.0205439
-0.0214221
-0.0217903
-0.0215051
-0.0204402
-0.0186087
-0.0161285
-0.0133047
-0.0105397
-0.0081892
-0.00657616
-0.00562668
-0.00505656
-0.0042695
-0.00266066
0.000313612
0.00478482
0.0105549
0.016958
0.02318
0.0285714
0.0329269
0.0365244
0.0400699
0.0443789
0.0499832
0.0568592
0.0643674
0.071489
0.0771145
0.080436
0.0813134
0.0802377
0.0780938
0.0759377
0.0746264
0.0744759
0.0750618
0.0753537
0.0740268
0.069818
0.0619642
0.0504168
0.035781
0.0192902
0.00235795
-0.0137155
-0.0280304
-0.0399179
-0.0491124
-0.0556561
-0.0597614
-0.0618409
-0.0624411
-0.0622112
-0.0617921
-0.0615912
-0.0618024
-0.0624054
-0.0632021
-0.0641185
-0.0652222
-0.0666902
-0.0687384
-0.0712433
-0.0738671
-0.0759271
-0.0768291
-0.0761498
-0.0739535
-0.0710831
-0.0690088
-0.0695974
-0.0747697
-0.086268
-0.105118
-0.131028
-0.161583
-0.19169
-0.213224
-0.215174
-0.184946
-0.110992
0.0132442
0.185333
0.390604
0.602158
0.784469
0.90138
0.925972
0.849005
0.682847
0.459027
0.219711
0.0060441
-0.152705
-0.244948
-0.276561
-0.265372
-0.233064
-0.198072
-0.171468
-0.156643
-0.151672
-0.152411
-0.155008
-0.157168
-0.158037
-0.157761
-0.156677
-0.155112
-0.153292
-0.151489
-0.149934
-0.148847
-0.148336
-0.148454
-0.149081
-0.150004
-0.150949
-0.151752
-0.152197
-0.152051
-0.151258
-0.149709
-0.147441
-0.144534
-0.141154
-0.137403
-0.133343
-0.129055
-0.124623
-0.120216
-0.116185
-0.112904
-0.11075
-0.109917
-0.11035
-0.111779
-0.113666
-0.115358
-0.116258
-0.115929
-0.114154
-0.111046
-0.106958
-0.102356
-0.0977721
-0.0937748
-0.0906022
-0.0883903
-0.0870386
-0.0862932
-0.0857985
-0.085231
-0.0843392
-0.0829117
-0.0809191
-0.0784762
-0.0758114
-0.0732425
-0.0711752
-0.0700572
-0.0701449
-0.071486
-0.0738795
-0.0768657
-0.0799798
-0.0827608
-0.0849831
-0.0866964
-0.0880807
-0.0894027
-0.0908926
-0.0926348
-0.0947455
-0.097145
-0.0997641
-0.102349
-0.104559
-0.105855
-0.105662
-0.103421
-0.0987738
-0.0916387
-0.082386
-0.0718145
-0.0608645
-0.0505077
-0.0414974
-0.0340718
-0.0279429
-0.0223727
-0.0164112
-0.00914365
-5.59737e-6
0.0112082
0.0241925
0.0382858
0.0526674
0.0664461
0.0790006
0.0898817
0.0989937
0.106318
0.111961
0.115939
0.118305
0.119141
0.118707
0.117416
0.115865
0.11462
0.11403
0.114335
0.11532
0.116668
0.117859
0.118364
0.117826
0.116121
0.113481
0.110428
0.107661
0.105826
0.105302
0.106048
0.107658
0.10943
0.110678
0.110842
0.109695
0.107264
0.103835
0.0997283
0.0952863
0.0907675
0.0862699
0.0818677
0.0775709
0.0732334
0.0689669
0.0648688
0.0612535
0.0584402
0.0567592
0.0562291
0.0567449
0.0578311
0.0589603
0.059708
0.0597848
0.0592551
0.0583066
0.0571658
0.0558954
0.054489
0.0527237
0.0504352
0.0475257
0.0441852
0.0407194
0.0376503
0.0354684
0.0344742
0.0346369
0.0356587
0.0370608
0.0382259
0.0386819
0.0382239
0.0368382
0.0348703
0.0327364
0.0310525
0.0303269
0.0309609
0.0331864
0.0370877
0.0424653
0.0489644
0.056159
0.0635211
0.0705263
0.0768167
0.0821761
0.0866003
0.090347
0.0937642
0.0972535
0.101013
0.105002
0.108951
0.112252
0.114316
0.114629
0.113035
0.109884
0.106068
0.102726
0.10109
0.102006
0.105501
0.110625
0.115485
0.117857
0.115778
0.108131
0.0949745
0.0775036
0.0575861
0.0372951
0.0183129
0.0018071
-0.0116526
-0.0220434
-0.0294766
-0.0342295
-0.0367876
-0.0376638
-0.0374863
-0.0367541
-0.035867
-0.0350268
-0.0343786
-0.033953
-0.0338259
-0.0341166
-0.034902
-0.0361593
-0.0376693
-0.0390463
-0.0398338
-0.0397626
-0.038743
-0.0372304
-0.0362949
-0.0376702
-0.0433491
-0.0551976
-0.074491
-0.101189
-0.133474
-0.167067
-0.195118
-0.208326
-0.195152
-0.143724
-0.0448431
0.104015
0.29455
0.505561
0.704399
0.853299
0.919291
0.884556
0.753106
0.550872
0.318607
0.100062
-0.0706498
-0.176888
-0.22107
-0.219436
-0.193748
-0.163226
-0.139778
-0.127153
-0.123568
-0.125056
-0.128003
-0.130234
-0.131112
-0.130864
-0.129827
-0.128328
-0.126506
-0.124479
-0.122433
-0.120424
-0.118589
-0.117085
-0.116027
-0.115484
-0.115349
-0.115432
-0.115357
-0.114876
-0.113793
-0.112106
-0.109971
-0.107573
-0.104926
-0.102055
-0.0987963
-0.0950231
-0.0907969
-0.0862307
-0.0816687
-0.0774528
-0.0738379
-0.0710193
-0.0690749
-0.0679653
-0.0674802
-0.0674191
-0.0675072
-0.0674613
-0.067142
-0.0664489
-0.0653914
-0.0640349
-0.0623545
-0.060314
-0.0579269
-0.0553449
-0.0528544
-0.0509413
-0.050059
-0.0504777
-0.0521144
-0.0545817
-0.0571545
-0.0591088
-0.0598693
-0.0591261
-0.0570475
-0.0540749
-0.0508094
-0.0479015
-0.0458885
-0.0450695
-0.0455534
-0.0472468
-0.0498808
-0.0531646
-0.0568077
-0.060534
-0.0642562
-0.0678574
-0.0712816
-0.0744849
-0.0772384
-0.0792439
-0.0801064
-0.0792855
-0.0762295
-0.0703246
-0.061036
-0.048085
-0.031489
-0.0118445
0.00975755
0.031809
0.0527424
0.0711558
0.0861469
0.0973846
0.105115
0.109919
0.112528
0.113634
0.113684
0.113006
0.111818
0.110253
0.108657
0.107398
0.106747
0.106865
0.107586
0.108527
0.109207
0.109245
0.10845
0.106947
0.105054
0.10314
0.101451
0.100145
0.0991422
0.0983459
0.0976782
0.097023
0.0963545
0.0956477
0.0948215
0.0937301
0.0922605
0.090284
0.0877087
0.0846674
0.0812835
0.0777273
0.0741379
0.0705919
0.0671254
0.0637367
0.0604845
0.0574258
0.0547351
0.0525576
0.0508593
0.0495245
0.0483771
0.0471802
0.0457846
0.0441995
0.0424681
0.0407736
0.0392168
0.0378834
0.0367876
0.035851
0.0349992
0.0341308
0.0331356
0.0317946
0.0298316
0.0270851
0.0235045
0.0192413
0.0146237
0.0101872
0.00641154
0.00368064
0.00215692
0.00167359
0.00194635
0.0026588
0.00352497
0.0044736
0.00574051
0.00764576
0.0106024
0.0149226
0.0206727
0.0276603
0.0354634
0.0435578
0.0514473
0.0587252
0.0651393
0.0706148
0.0752343
0.079117
0.0823228
0.0848406
0.0866379
0.0875492
0.0874612
0.0863585
0.0842781
0.0814933
0.0783591
0.0752724
0.0727587
0.0713043
0.0712953
0.0729949
0.0763669
0.0809386
0.085799
0.0895411
0.0907296
0.0881738
0.081262
0.0700664
0.0554692
0.038773
0.0213889
0.00452921
-0.0108526
-0.0241378
-0.034957
-0.0430981
-0.048602
-0.051843
-0.0534138
-0.0541422
-0.0547379
-0.0556601
-0.0570741
-0.0588091
-0.0605651
-0.0619952
-0.062741
-0.0626933
-0.0618625
-0.0603173
-0.0583894
-0.0568094
-0.0567675
-0.0598596
-0.0678682
-0.082252
-0.103702
-0.131375
-0.162301
-0.191128
-0.210083
-0.209395
-0.178357
-0.10761
0.00774589
0.164675
0.349601
0.538177
0.69872
0.799391
0.817007
0.744666
0.594844
0.396903
0.188756
0.00622476
-0.12633
-0.200709
-0.223895
-0.212471
-0.185448
-0.158083
-0.138755
-0.129364
-0.127652
-0.129963
-0.133177
-0.135527
-0.136581
-0.136535
-0.135889
-0.135014
-0.134274
-0.13382
-0.133661
-0.13362
-0.133365
-0.132541
-0.130863
-0.128393
-0.125478
-0.122634
-0.120402
-0.119045
-0.118579
-0.118601
-0.118533
-0.117736
-0.115875
-0.112884
-0.10909
-0.105019
-0.101224
-0.0981424
-0.0960216
-0.094845
-0.0943799
-0.0942855
-0.0940906
-0.0935144
-0.092302
-0.0904333
-0.0880821
-0.0854856
-0.0829289
-0.0806502
-0.0786924
-0.0770464
-0.0756199
-0.0743658
-0.0732339
-0.0722445
-0.0712599
-0.0701783
-0.0687788
-0.0667995
-0.0641769
-0.0610336
-0.0578033
-0.054984
-0.0531055
-0.0525038
-0.0531729
-0.0548008
-0.0570546
-0.0594473
-0.0617709
-0.0639452
-0.0658954
-0.067651
-0.0692063
-0.0704744
-0.071505
-0.0722875
-0.0728486
-0.073231
-0.0734066
-0.0732845
-0.0728795
-0.0720703
-0.0707075
-0.0685361
-0.0652063
-0.0602537
-0.053192
-0.0438287
-0.0322509
-0.0188324
-0.00436397
0.0102029
0.0239952
0.0361683
0.046197
0.0538852
0.0592442
0.0627139
0.0649268
0.066605
0.0684541
0.071016
0.0744685
0.0786851
0.0832903
0.0877059
0.0915952
0.0946956
0.0969611
0.0984742
0.099466
0.100046
0.100273
0.100145
0.0996202
0.0984926
0.0966661
0.0941187
0.0910363
0.0877325
0.0847289
0.082408
0.081038
0.0805516
0.0805732
0.0805731
0.0801237
0.0789761
0.077227
0.0751872
0.0732294
0.0716292
0.0703325
0.0690794
0.0675927
0.0655847
0.0630197
0.0601036
0.0571768
0.0545767
0.0524198
0.0506031
0.0489207
0.0470909
0.0448519
0.0422649
0.039498
0.0369212
0.0349609
0.033925
0.033884
0.0346801
0.0358955
0.0370158
0.0375652
0.0372818
0.0361341
0.0343576
0.0322545
0.0301261
0.0280822
0.0261295
0.0240629
0.0217149
0.0189933
0.0158894
0.0126131
0.00949446
0.00678999
0.00468884
0.00326835
0.00237085
0.00177499
0.00137774
0.0011501
0.00118893
0.00183625
0.00342095
0.00620662
0.0102756
0.0154134
0.0212613
0.0274005
0.0334066
0.0390612
0.044331
0.0493293
0.0541914
0.0590987
0.0641369
0.069375
0.0747771
0.0801903
0.0853857
0.089942
0.0934228
0.0953969
0.0956216
0.0941898
0.0913661
0.0876596
0.0837237
0.0801507
0.0774885
0.0762245
0.0767223
0.079103
0.0830461
0.0875691
0.0912936
0.0925573
0.0898804
0.0824256
0.0702342
0.0542596
0.0360264
0.0171949
-0.000729693
-0.0165978
-0.0297646
-0.039851
-0.0468112
-0.0509387
-0.0528487
-0.0534862
-0.0538069
-0.0545756
-0.0561856
-0.0586357
-0.0615247
-0.0643164
-0.0665331
-0.0677465
-0.0676435
-0.0659936
-0.0628819
-0.0587836
-0.0546128
-0.0517705
-0.0517334
-0.055858
-0.0649095
-0.0790294
-0.097922
-0.121173
-0.148277
-0.178418
-0.20973
-0.238511
-0.258677
-0.26148
-0.236178
-0.172019
-0.0614706
0.0958676
0.289617
0.497282
0.686591
0.821829
0.873361
0.826963
0.689485
0.488176
0.263167
0.055794
-0.102771
-0.198628
-0.235687
-0.230464
-0.203978
-0.174244
-0.151925
-0.140022
-0.136454
-0.137272
-0.139028
-0.139887
-0.139451
-0.138126
-0.136542
-0.135049
-0.133706
-0.132323
-0.130613
-0.128204
-0.124997
-0.121023
-0.116538
-0.111963
-0.10774
-0.104201
-0.101506
-0.0996229
-0.0984973
-0.0978647
-0.0974544
-0.0969185
-0.0959607
-0.0944601
-0.0925623
-0.0906681
-0.0893082
-0.0888676
-0.0894842
-0.0909057
-0.0924425
-0.0933625
-0.0929828
-0.0909709
-0.0875117
-0.0831259
-0.0784294
-0.074052
-0.0703942
-0.0675048
-0.0653053
-0.0634865
-0.0619052
-0.0605629
-0.0593614
-0.0584974
-0.0579638
-0.0577264
-0.0577521
-0.0580219
-0.0585603
-0.0593598
-0.0603411
-0.0614178
-0.062391
-0.0631973
-0.0638334
-0.0644735
-0.0654623
-0.0670461
-0.0691893
-0.0716019
-0.0737126
-0.0749986
-0.0750046
-0.0737692
-0.0716973
-0.0696048
-0.0683678
-0.0686084
-0.0706766
-0.0742355
-0.0786322
-0.0829726
-0.0864155
-0.0882815
-0.0880464
-0.0853077
-0.0797628
-0.0711476
-0.0594659
-0.0449728
-0.028512
-0.011255
0.00533726
0.019867
0.0313639
0.0394263
0.0442659
0.0467929
0.0481773
0.0496606
0.0522989
0.056709
0.0629686
0.0706472
0.0789634
0.0868768
0.0934956
0.0981398
0.100391
0.100136
0.097527
0.0928684
0.0866362
0.0795287
0.0723736
0.0661183
0.0615952
0.0591957
0.0589395
0.0602938
0.0622955
0.0639685
0.064506
0.0633994
0.0606134
0.0563733
0.0511529
0.0455804
0.0403495
0.0360752
0.0333251
0.0324073
0.0332563
0.0354263
0.0381997
0.0407664
0.0424026
0.0426861
0.0415669
0.0393086
0.0363056
0.0328295
0.0290207
0.0248652
0.0202694
0.0152782
0.0101656
0.00527468
0.000983433
-0.00239435
-0.00486754
-0.0064862
-0.00744907
-0.00802864
-0.00834056
-0.0084163
-0.00838844
-0.00822237
-0.00808409
-0.00816869
-0.00872968
-0.0100011
-0.012088
-0.0149806
-0.0183642
-0.0218065
-0.0247749
-0.0269072
-0.0281361
-0.0286559
-0.0288049
-0.0290183
-0.0295486
-0.0303698
-0.0312463
-0.0318348
-0.0318096
-0.031074
-0.0297388
-0.0280131
-0.0261781
-0.0244461
-0.0227636
-0.0210251
-0.0189098
-0.0161308
-0.012521
-0.00808495
-0.00311945
0.00205111
0.00695024
0.0112306
0.0146309
0.0173012
0.0196855
0.0224417
0.0262381
0.0316515
0.0388345
0.0474367
0.0566437
0.0652771
0.072158
0.0763805
0.0776146
0.0761995
0.0729654
0.0691765
0.0661086
0.0647904
0.0657521
0.0689607
0.073735
0.0787466
0.082432
0.0831204
0.079635
0.0714487
0.0588757
0.042898
0.0249753
0.00662693
-0.0108188
-0.0264129
-0.039615
-0.0502379
-0.0583697
-0.0642154
-0.0681724
-0.070697
-0.0722959
-0.0734261
-0.0743379
-0.0752299
-0.0761618
-0.0770413
-0.0776568
-0.0778711
-0.0775755
-0.0768598
-0.0759529
-0.0750554
-0.0742675
-0.0735174
-0.072508
-0.070956
-0.068847
-0.0665529
-0.0650403
-0.0659334
-0.0710011
-0.0818224
-0.0993209
-0.123577
-0.153555
-0.186698
-0.218659
-0.243178
-0.251953
-0.23486
-0.181221
-0.0823698
0.0647806
0.25409
0.467591
0.676222
0.844326
0.938176
0.935281
0.832246
0.64687
0.414294
0.177163
-0.0260156
-0.170497
-0.249415
-0.272025
-0.257213
-0.225726
-0.193926
-0.170797
-0.158605
-0.155415
-0.157712
-0.162316
-0.167185
-0.171269
-0.174075
-0.175288
-0.174801
-0.172733
-0.169453
-0.165451
-0.161287
-0.157367
-0.154002
-0.151138
-0.148777
-0.146735
-0.144892
-0.143083
-0.141206
-0.139157
-0.137009
-0.134885
-0.132953
-0.131346
-0.130089
-0.129054
-0.12804
-0.126901
-0.125628
-0.124409
-0.123594
-0.123471
-0.124097
-0.125232
-0.126314
-0.126644
-0.125781
-0.123512
-0.120151
-0.116325
-0.112707
-0.109841
-0.107797
-0.106385
-0.105115
-0.10353
-0.101314
-0.0985097
-0.0953632
-0.092276
-0.0896451
-0.0877744
-0.0867803
-0.0866162
-0.0869792
-0.0875001
-0.0876574
-0.0871968
-0.0859212
-0.0839215
-0.0816175
-0.0795044
-0.0780491
-0.0776352
-0.0784599
-0.0805939
-0.0838453
-0.0880296
-0.0928879
-0.0980924
-0.103341
-0.10831
-0.112689
-0.116146
-0.118442
-0.119304
-0.118466
-0.115768
-0.111089
-0.104418
-0.0960643
-0.0867064
-0.0771939
-0.0682025
-0.0603677
-0.0537293
-0.0478066
-0.0418234
-0.0349689
-0.0267095
-0.016983
-0.00608943
0.00527186
0.0165657
0.0273703
0.0375575
0.0471968
0.0563488
0.0649804
0.0729637
0.0801254
0.0863698
0.0917972
0.0967063
0.101413
0.10609
0.110618
0.114721
0.117983
0.120003
0.120706
0.120197
0.118743
0.116689
0.114276
0.111659
0.108869
0.10598
0.103125
0.100435
0.0981065
0.0962463
0.0948952
0.0940067
0.0934715
0.0931186
0.0928354
0.0923943
0.0915356
0.0900042
0.0876269
0.0843812
0.0804964
0.0764406
0.0726586
0.0695992
0.0674187
0.0660383
0.0652694
0.0646386
0.0637925
0.062386
0.0602093
0.0572406
0.0536092
0.0496083
0.0456441
0.0420959
0.0392449
0.0372113
0.0359285
0.0352821
0.0350649
0.0351182
0.0353379
0.0355403
0.0355982
0.0353071
0.0346121
0.0335202
0.0323105
0.0312654
0.0307007
0.0307625
0.0312533
0.0317866
0.031924
0.0312196
0.0296919
0.0274995
0.0249597
0.0224321
0.0201344
0.0181466
0.0164559
0.0150862
0.0141125
0.0135582
0.0134553
0.0136869
0.0141379
0.0147325
0.0154108
0.0163266
0.0176018
0.0193968
0.0217518
0.0246241
0.0279617
0.0316114
0.0354228
0.039316
0.0431983
0.0470797
0.0509627
0.0548955
0.0589059
0.0631052
0.067495
0.072105
0.076996
0.0821966
0.087663
0.0932874
0.0987636
0.103755
0.107689
0.11011
0.110748
0.109616
0.107098
0.103867
0.10083
0.0988583
0.0986102
0.100479
0.104387
0.109693
0.115105
0.118891
0.119129
0.114333
0.104015
0.0886739
0.070007
0.0502585
0.0316389
0.0157056
0.00323896
-0.00586052
-0.0121113
-0.0161445
-0.0185611
-0.0199099
-0.0207061
-0.0215137
-0.0227895
-0.024794
-0.0275885
-0.0309169
-0.0344443
-0.0378164
-0.0408153
-0.0432625
-0.0451046
-0.0462593
-0.0466192
-0.0460967
-0.0448661
-0.043302
-0.0421941
-0.0424855
-0.0451908
-0.0511226
-0.0606507
-0.0735384
-0.0890698
-0.106488
-0.125347
-0.145582
-0.167419
-0.190697
-0.214642
-0.237321
-0.255488
-0.265009
-0.261031
-0.238007
-0.189516
-0.108694
0.0101528
0.168584
0.360282
0.568013
0.763872
0.913752
0.985718
0.959913
0.835953
0.634953
0.394357
0.15757
-0.0381479
-0.170931
-0.23741
-0.249869
-0.228901
-0.195406
-0.164437
-0.143137
-0.132151
-0.128441
-0.128345
-0.129269
-0.130086
-0.130737
-0.131409
-0.132099
-0.132567
-0.132475
-0.131521
-0.129684
-0.127105
-0.12412
-0.12106
-0.11818
-0.11558
-0.113286
-0.111296
-0.109559
-0.108078
-0.106806
-0.105599
-0.104226
-0.102486
-0.100196
-0.0973401
-0.0941688
-0.0909254
-0.0878385
-0.0850272
-0.0825058
-0.0802213
-0.0781701
-0.0765223
-0.075392
-0.0749416
-0.0752327
-0.076187
-0.077617
-0.0791768
-0.0805241
-0.0813623
-0.081409
-0.080607
-0.0790058
-0.0768013
-0.0742918
-0.0717632
-0.06941
-0.0672047
-0.0649951
-0.0626052
-0.0598803
-0.0569144
-0.0538896
-0.0511782
-0.0490691
-0.0477563
-0.0473655
-0.0477698
-0.048963
-0.0508988
-0.0535346
-0.0568201
-0.060584
-0.0646079
-0.0685693
-0.0721602
-0.0751494
-0.0774756
-0.0792098
-0.0805147
-0.0815288
-0.0823439
-0.082907
-0.0829718
-0.0822179
-0.0801308
-0.0762263
-0.0699839
-0.0611786
-0.0497735
-0.0361521
-0.0210875
-0.00553966
0.00935445
0.0227469
0.0341273
0.0434594
0.0510757
0.0575549
0.0634257
0.069109
0.0748745
0.0807129
0.0866424
0.0925161
0.0980987
0.103111
0.107292
0.1105
0.112676
0.113967
0.114678
0.115226
0.115932
0.11696
0.118282
0.119659
0.120715
0.121107
0.120534
0.118922
0.116332
0.113007
0.109283
0.105488
0.101918
0.0987388
0.096026
0.0937096
0.0916218
0.0896056
0.0876273
0.0856657
0.0838988
0.0824268
0.0812483
0.0803155
0.079456
0.078515
0.077413
0.076219
0.0750043
0.073803
0.0725167
0.0708833
0.0686512
0.0655928
0.0617586
0.0574892
0.0532256
0.049436
0.0463825
0.0441212
0.0423761
0.0408037
0.0390737
0.0369855
0.0344054
0.0314012
0.0280073
0.0243316
0.0205571
0.0169958
0.0139337
0.011718
0.0105599
0.0104865
0.0113986
0.0130137
0.0149852
0.0169539
0.0185575
0.0195008
0.0196923
0.018973
0.0174138
0.015112
0.0122655
0.00903355
0.00561657
0.00227484
-0.000667161
-0.00276345
-0.0035451
-0.00265136
2.19995e-5
0.00434199
0.00994158
0.0162867
0.0230174
0.0298411
0.0366167
0.0433993
0.0501114
0.0567938
0.0634171
0.0699823
0.0766663
0.0836234
0.0907623
0.0977541
0.103888
0.108295
0.110248
0.109392
0.105946
0.100785
0.0951728
0.0904916
0.0879751
0.0883646
0.0916905
0.0971397
0.103017
0.107179
0.107456
0.102293
0.0912955
0.075112
0.0555344
0.0347027
0.0147761
-0.002645
-0.0167227
-0.0272868
-0.0346622
-0.0394566
-0.0422737
-0.0437335
-0.0444514
-0.0448599
-0.0452658
-0.0458126
-0.0465975
-0.0475434
-0.0486244
-0.0497425
-0.0508505
-0.0519933
-0.053197
-0.0545053
-0.0560064
-0.0576425
-0.0592476
-0.0603899
-0.0607082
-0.0599063
-0.0580683
-0.0557194
-0.0539346
-0.0541887
-0.0580819
-0.066984
-0.0816351
-0.102118
-0.127648
-0.156366
-0.184992
-0.208881
-0.22173
-0.215677
-0.181478
-0.110155
0.00440985
0.162144
0.353361
0.557109
0.743073
0.877097
0.929885
0.885907
0.749513
0.544999
0.310564
0.0876021
-0.0903801
-0.205544
-0.257773
-0.260833
-0.23531
-0.200893
-0.171111
-0.151851
-0.143029
-0.141426
-0.14328
-0.14593
-0.148228
-0.150001
-0.151352
-0.152376
-0.153069
-0.153332
-0.153173
-0.152641
-0.151857
-0.150856
-0.149672
-0.148171
-0.146303
-0.143949
-0.141175
-0.138193
-0.135237
-0.132505
-0.130047
-0.127673
-0.12501
-0.121756
-0.117696
-0.112948
-0.107899
-0.10305
-0.0988665
-0.0957153
-0.09366
-0.0926447
-0.0924143
-0.0927118
-0.0932263
-0.093674
-0.0938393
-0.0935981
-0.092938
-0.0919853
-0.0909214
-0.0899273
-0.089061
-0.0881884
-0.0870717
-0.0854032
-0.0829693
-0.0797738
-0.076067
-0.072221
-0.0687238
-0.065948
-0.0641178
-0.0632218
-0.0632021
-0.0637869
-0.0647205
-0.0657872
-0.0667459
-0.0673951
-0.0676743
-0.0676027
-0.0673276
-0.0670698
-0.0670899
-0.0675941
-0.0686858
-0.0703458
-0.0723962
-0.0746416
-0.0769171
-0.0790906
-0.081136
-0.0829208
-0.0842216
-0.084587
-0.0835113
-0.0803941
-0.0748852
-0.0670392
-0.0572906
-0.0465168
-0.0357635
-0.0258502
-0.0173145
-0.0102347
-0.00424348
0.0011988
0.0066054
0.0123458
0.0185795
0.0252032
0.0321054
0.0391125
0.0461009
0.0529795
0.0596461
0.0658991
0.0716335
0.0767599
0.0812169
0.0848963
0.0879057
0.0902877
0.0921245
0.0934852
0.0943722
0.0947558
0.0946409
0.0939731
0.0928997
0.0915321
0.090063
0.0886241
0.0872974
0.0860815
0.0849295
0.083796
0.0826829
0.0817066
0.080921
0.0802698
0.0796515
0.0789167
0.0778248
0.076169
0.0738612
0.0710533
0.0680122
0.0650664
0.0625568
0.0606745
0.0593672
0.0583327
0.0570866
0.0551973
0.0522986
0.0483631
0.0436923
0.0388879
0.0347098
0.0317427
0.0302946
0.0302665
0.0311276
0.0320571
0.0323012
0.0313626
0.0290883
0.0257529
0.0219018
0.0181271
0.014918
0.0124784
0.0107277
0.00940097
0.0081802
0.00674498
0.0050083
0.00300018
0.000945532
-0.000940306
-0.00248544
-0.00353702
-0.00400414
-0.00381633
-0.00293873
-0.00134814
0.000831632
0.00334889
0.00587103
0.00801561
0.00939152
0.00976344
0.00906519
0.00733756
0.00488437
0.00220353
-8.33614e-5
-0.0012771
-0.000863458
0.00132773
0.00506091
0.00975365
0.0146713
0.0192783
0.0233404
0.0271102
0.0311376
0.0359956
0.0419781
0.0490299
0.0567661
0.0645753
0.0719368
0.0784183
0.0837154
0.0876235
0.0899511
0.0904746
0.089279
0.0867995
0.0837957
0.0813012
0.0801638
0.0807284
0.0823945
0.0838536
0.0832753
0.079166
0.0708256
0.0586689
0.0441569
0.0292182
0.0155646
0.00430495
-0.00440068
-0.0112114
-0.017169
-0.023253
-0.0301024
-0.0376405
-0.0453332
-0.0523864
-0.0579699
-0.0615545
-0.06317
-0.0634221
-0.0631648
-0.0632937
-0.0642413
-0.0659422
-0.0678526
-0.0693163
-0.0698395
-0.0694342
-0.0683981
-0.0672463
-0.0664766
-0.066438
-0.0673241
-0.0693835
-0.0730907
-0.0792893
-0.0891446
-0.10374
-0.12373
-0.149169
-0.178803
-0.209619
-0.236626
-0.252741
-0.249106
-0.215747
-0.143108
-0.0247217
0.139814
0.341891
0.562734
0.774145
0.94309
1.03852
1.03937
0.940933
0.757437
0.51926
0.265665
0.0349709
-0.144444
-0.259271
-0.311862
-0.316237
-0.291726
-0.256415
-0.22324
-0.19868
-0.183926
-0.177018
-0.175016
-0.175338
-0.176378
-0.177235
-0.177425
-0.176777
-0.175546
-0.17409
-0.172915
-0.172252
-0.172124
-0.172161
-0.172023
-0.171407
-0.170319
-0.168947
-0.167585
-0.166512
-0.165726
-0.165172
-0.1646
-0.163755
-0.162373
-0.160137
-0.156733
-0.152014
-0.14609
-0.139482
-0.133011
-0.127548
-0.123807
-0.121974
-0.121817
-0.122682
-0.123918
-0.124954
-0.125553
-0.125789
-0.125779
-0.125755
-0.125899
-0.126311
-0.126944
-0.127726
-0.128489
-0.128913
-0.128617
-0.127438
-0.125271
-0.122325
-0.118987
-0.115644
-0.112691
-0.110301
-0.108497
-0.107357
-0.106808
-0.106903
-0.107601
-0.108824
-0.110223
-0.111491
-0.112338
-0.112614
-0.112612
-0.112801
-0.113671
-0.115709
-0.119166
-0.123895
-0.129456
-0.13511
-0.139855
-0.142555
-0.142152
-0.137773
-0.129106
-0.116543
-0.101137
-0.0844933
-0.0684429
-0.0543982
-0.043292
-0.035188
-0.0294364
-0.0250132
-0.0209603
-0.0165716
-0.0115037
-0.00581231
0.000490822
0.0076162
0.0157773
0.0252275
0.0359213
0.0472777
0.058299
0.0679617
0.0754798
0.0807394
0.0843472
0.0871963
0.0901959
0.0937622
0.0976955
0.10132
0.10388
0.104932
0.104551
0.103382
0.102143
0.101424
0.101373
0.101663
0.101678
0.10089
0.0991277
0.0965562
0.0936798
0.0910335
0.089002
0.087612
0.086499
0.0851193
0.0830104
0.0799928
0.0762806
0.0723664
0.0688124
0.066225
0.0647215
0.0641603
0.0641123
0.0640751
0.063676
0.0626576
0.0611514
0.0593879
0.0576411
0.0560199
0.0545306
0.052983
0.0510744
0.0484865
0.0451678
0.0412677
0.0371131
0.0331052
0.0295818
0.0267581
0.0246719
0.0232111
0.0221431
0.0213706
0.0207546
0.0200154
0.0191339
0.018092
0.0170926
0.0164584
0.0165987
0.017773
0.0199671
0.0228018
0.0256354
0.0277699
0.0286742
0.0282651
0.0268402
0.0250283
0.0234698
0.0225487
0.0222388
0.0221309
0.0217187
0.0205221
0.0184145
0.0157594
0.0132958
0.011715
0.0116109
0.013152
0.0160379
0.0197882
0.023842
0.0278646
0.0318211
0.0359254
0.0404465
0.045598
0.0513986
0.0577691
0.0645774
0.0716151
0.0786763
0.085474
0.0915499
0.0964211
0.099575
0.100739
0.100033
0.0980071
0.0955904
0.0938226
0.0935181
0.0948872
0.0972506
0.0991974
0.0988903
0.094719
0.0858902
0.0726906
0.0563629
0.0387759
0.021776
0.00667858
-0.00576541
-0.0155021
-0.0227934
-0.0280375
-0.0315457
-0.0337026
-0.0349264
-0.0357518
-0.0366629
-0.0380053
-0.0399134
-0.0423089
-0.044915
-0.0473936
-0.0495225
-0.0511253
-0.0521525
-0.0525666
-0.05212
-0.0506399
-0.0480354
-0.0444656
-0.0404696
-0.0373551
-0.0369011
-0.0411175
-0.0519524
-0.0705447
-0.0968981
-0.129246
-0.16368
-0.194092
-0.212534
-0.209551
-0.174888
-0.0993266
0.0228334
0.190564
0.392917
0.607729
0.803382
0.94449
1.00079
0.956141
0.81438
0.599858
0.351395
0.111764
-0.0835628
-0.214279
-0.278033
-0.287231
-0.262108
-0.223356
-0.186482
-0.15959
-0.144307
-0.138257
-0.137571
-0.138829
-0.14011
-0.140683
-0.140643
-0.140285
-0.139761
-0.13908
-0.13813
-0.136725
-0.134779
-0.13228
-0.129339
-0.126099
-0.122792
-0.119637
-0.116832
-0.114538
-0.112768
-0.111438
-0.110513
-0.10988
-0.109458
-0.109132
-0.108786
-0.108247
-0.107314
-0.105764
-0.103487
-0.100513
-0.0970338
-0.0933174
-0.0896471
-0.0862104
-0.0830464
-0.0801996
-0.0776511
-0.0754534
-0.0736087
-0.0722058
-0.0713199
-0.0710101
-0.0712072
-0.0718085
-0.0726425
-0.0735745
-0.0743939
-0.0749036
-0.074996
-0.0746484
-0.0739855
-0.0731877
-0.0724814
-0.0720872
-0.072092
-0.0723199
-0.0724455
-0.0720073
-0.070575
-0.0679322
-0.0643141
-0.0603103
-0.0566732
-0.0541848
-0.0534026
-0.054602
-0.0576473
-0.0621513
-0.0676361
-0.0735955
-0.0797001
-0.0855598
-0.0909095
-0.0953836
-0.0985023
-0.0997622
-0.0986228
-0.0946103
-0.0875622
-0.0776315
-0.0652989
-0.0514439
-0.0370511
-0.0230524
-0.0101878
0.00109922
0.010787
0.0192629
0.0270826
0.0348881
0.0432104
0.0523448
0.0622028
0.0724347
0.0825143
0.0918742
0.100094
0.106869
0.112242
0.116302
0.119243
0.12136
0.12292
0.124129
0.125268
0.126486
0.12782
0.129188
0.130442
0.131346
0.131731
0.131574
0.130904
0.129824
0.128413
0.126772
0.124983
0.123096
0.121187
0.119321
0.117412
0.115332
0.112844
0.109874
0.106319
0.102411
0.0984611
0.0948095
0.0917087
0.0892425
0.0871839
0.0852099
0.0829993
0.0804035
0.0775177
0.074669
0.0722862
0.0706868
0.0699779
0.0700053
0.0703592
0.0705726
0.0701684
0.0689113
0.0666859
0.0635182
0.0597239
0.055617
0.0515521
0.0477961
0.0445446
0.0417788
0.0393064
0.0369332
0.0345007
0.0318491
0.029099
0.0263927
0.0239591
0.0220004
0.0205887
0.019704
0.0192891
0.0191963
0.0193605
0.0196453
0.0199167
0.0199488
0.0195331
0.0184496
0.0166369
0.0143725
0.012069
0.0103901
0.0100476
0.011535
0.015073
0.020536
0.0275555
0.0355178
0.0437093
0.0516611
0.0589986
0.0657213
0.072036
0.0781857
0.0843838
0.0905707
0.0964065
0.101431
0.105085
0.106926
0.106771
0.104721
0.101198
0.0969589
0.0929845
0.0904184
0.0903784
0.0936476
0.100068
0.108451
0.116674
0.122129
0.122615
0.117037
0.105896
0.0908961
0.0744012
0.0584698
0.0441344
0.0313802
0.0194379
0.00755227
-0.00448046
-0.0161802
-0.0266451
-0.0350411
-0.0410718
-0.0449342
-0.0474071
-0.049212
-0.0509176
-0.0527001
-0.0543384
-0.0555907
-0.056167
-0.0560088
-0.0550312
-0.0533003
-0.0509682
-0.0481799
-0.045382
-0.0433062
-0.0432918
-0.0472179
-0.0569169
-0.0740482
-0.0994108
-0.132209
-0.169349
-0.204998
-0.230535
-0.234737
-0.204935
-0.129556
-0.00178478
0.176074
0.389301
0.610066
0.80125
0.92462
0.951501
0.872214
0.700243
0.46959
0.225101
0.00963936
-0.147238
-0.23538
-0.262849
-0.249272
-0.217283
-0.185
-0.162374
-0.151432
-0.149301
-0.151485
-0.154211
-0.155481
-0.154775
-0.152531
-0.149439
-0.146237
-0.143558
-0.141855
-0.141484
-0.142581
-0.144864
-0.147734
-0.150423
-0.152203
-0.152507
-0.151184
-0.148467
-0.144812
-0.140659
-0.13634
-0.132034
-0.127812
-0.123673
-0.119768
-0.116398
-0.113917
-0.112476
-0.111952
-0.111927
-0.111843
-0.111071
-0.109271
-0.106461
-0.10299
-0.0994696
-0.0963911
-0.0941551
-0.0928087
-0.0921008
-0.0916291
-0.0909065
-0.0896179
-0.0875804
-0.0847647
-0.0814278
-0.0778716
-0.0744216
-0.0713747
-0.0689218
-0.067156
-0.0660315
-0.065454
-0.0652579
-0.0652613
-0.0653284
-0.0653181
-0.0652332
-0.0651112
-0.0650004
-0.0649826
-0.0650761
-0.0652794
-0.0655116
-0.0656639
-0.0656295
-0.0653283
-0.0648315
-0.0642642
-0.0638584
-0.0639623
-0.0648093
-0.0664585
-0.0686697
-0.0707295
-0.0716621
-0.0702121
-0.0651817
-0.0558147
-0.0420295
-0.0245023
-0.00461231
0.0157651
0.0348623
0.0512024
0.0640125
0.0731421
0.079083
0.0826708
0.0848145
0.0863685
0.0879586
0.0899543
0.0924778
0.0954144
0.0985044
0.101446
0.103988
0.106019
0.107542
0.108619
0.109434
0.109974
0.11007
0.109511
0.108049
0.105596
0.102292
0.0985324
0.0947801
0.0914318
0.0886464
0.0863085
0.084187
0.0819333
0.0794376
0.0766788
0.0738896
0.0713124
0.0692508
0.0679008
0.0672884
0.0673378
0.0678336
0.0684387
0.0688436
0.0687318
0.0678286
0.0659263
0.0629391
0.0588796
0.0539041
0.0483095
0.0425394
0.0371419
0.0325874
0.0291923
0.0270371
0.0259608
0.0255321
0.0252909
0.0247761
0.0237554
0.0221219
0.0200182
0.0176338
0.0151772
0.0127753
0.01034
0.00783275
0.00515264
0.00229183
-0.000641733
-0.00340599
-0.00564785
-0.0070317
-0.00735474
-0.00664066
-0.00518316
-0.00346063
-0.0020609
-0.0014535
-0.00191046
-0.0034504
-0.00562601
-0.00798875
-0.00988892
-0.0107631
-0.010182
-0.00789337
-0.00385897
0.00172838
0.00845394
0.0158767
0.0235413
0.031062
0.0382201
0.0449501
0.0513272
0.057579
0.0639574
0.0706812
0.0777971
0.0850902
0.0921014
0.0980095
0.101864
0.102813
0.10049
0.0952216
0.0878313
0.0797234
0.0724165
0.0672049
0.0649169
0.0657925
0.0695211
0.075416
0.0823148
0.0886179
0.0925228
0.0923008
0.0868678
0.076092
0.0610565
0.0436138
0.0258423
0.00946389
-0.0046611
-0.0163676
-0.0260633
-0.0341804
-0.0408937
-0.0462211
-0.0502078
-0.0530764
-0.0552872
-0.0573678
-0.0596867
-0.0622605
-0.0649376
-0.0673541
-0.0691847
-0.0703169
-0.0706241
-0.0701005
-0.0687384
-0.0667031
-0.0643698
-0.0624317
-0.0619546
-0.0641735
-0.0702561
-0.0811536
-0.0973599
-0.118974
-0.145322
-0.174974
-0.205396
-0.232786
-0.25219
-0.257967
-0.2437
-0.20229
-0.126862
-0.0124936
0.141111
0.326248
0.524997
0.709772
0.847867
0.909619
0.877531
0.75318
0.558489
0.330219
0.109643
-0.0690385
-0.186827
-0.24267
-0.249696
-0.228161
-0.197608
-0.171548
-0.155846
-0.150359
-0.151876
-0.156626
-0.161805
-0.165912
-0.168333
-0.168791
-0.167313
-0.16427
-0.160254
-0.155969
-0.152004
-0.148675
-0.14587
-0.14326
-0.140584
-0.137783
-0.13498
-0.132364
-0.130095
-0.12809
-0.126148
-0.123955
-0.121386
-0.118486
-0.115525
-0.112883
-0.110927
-0.109718
-0.109109
-0.108635
-0.107776
-0.106178
-0.103724
-0.100617
-0.0972743
-0.0941897
-0.0916931
-0.0898235
-0.0884698
-0.0873229
-0.0861581
-0.0848861
-0.0836242
-0.0824908
-0.0815749
-0.0808102
-0.0799815
-0.0788461
-0.0772665
-0.075299
-0.0731825
-0.0711177
-0.0692489
-0.067543
-0.0657873
-0.0638755
-0.0618851
-0.0600569
-0.0587164
-0.0580559
-0.058007
-0.058262
-0.0583681
-0.0581031
-0.0574845
-0.0568875
-0.0568501
-0.0578002
-0.0598622
-0.0627757
-0.0660789
-0.0691223
-0.0715643
-0.0731678
-0.07388
-0.0735483
-0.0718598
-0.0683297
-0.0623088
-0.0533225
-0.0413211
-0.0268073
-0.0107592
0.00565133
0.0213025
0.0354253
0.0477849
0.0585935
0.0682525
0.0771712
0.0855628
0.0933009
0.100013
0.105289
0.108727
0.110095
0.109469
0.107038
0.103336
0.0989462
0.0944962
0.0904699
0.0871522
0.0845544
0.0824095
0.0804475
0.0784165
0.0762836
0.0743626
0.0729591
0.0724006
0.0728828
0.0741061
0.0756383
0.0768211
0.0770875
0.0760236
0.0737076
0.0705796
0.0671473
0.0639762
0.0614181
0.0594034
0.0576719
0.0557756
0.0533463
0.050186
0.0463065
0.0418925
0.0371704
0.0324369
0.0276728
0.0229854
0.0184614
0.0142511
0.0107061
0.0082009
0.00696297
0.00701556
0.0078066
0.0085617
0.00824953
0.00617218
0.00208459
-0.00360539
-0.00990198
-0.0157554
-0.0202612
-0.0229971
-0.0241568
-0.0242883
-0.0240257
-0.0238994
-0.0240047
-0.0241425
-0.024028
-0.0235495
-0.022652
-0.021481
-0.0202871
-0.019261
-0.0183997
-0.0175882
-0.0165616
-0.0149797
-0.0124628
-0.00878786
-0.0039045
0.00186549
0.00789015
0.0132757
0.0171024
0.0189658
0.0189618
0.0178535
0.0167891
0.0169168
0.0189109
0.0229389
0.028539
0.0349221
0.0412914
0.0470831
0.0521152
0.0562848
0.0596404
0.0621344
0.0635316
0.0636063
0.0623802
0.0602189
0.0579785
0.0567496
0.0575198
0.0609251
0.0668446
0.0740867
0.080656
0.0840837
0.0822645
0.0739963
0.0594997
0.0402963
0.0188673
-0.00212848
-0.0205284
-0.0352586
-0.0463081
-0.0543833
-0.0604856
-0.0654891
-0.0699645
-0.0741296
-0.0779153
-0.081032
-0.0831343
-0.0839235
-0.0832705
-0.0815138
-0.0790876
-0.0766644
-0.074926
-0.0740886
-0.0739573
-0.0740472
-0.0739016
-0.073361
-0.0728346
-0.0734434
-0.0768049
-0.0846732
-0.0985724
-0.119185
-0.145978
-0.176714
-0.207448
-0.232644
-0.245941
-0.24119
-0.213397
-0.159412
-0.0781644
0.0294644
0.160917
0.312482
0.478918
0.653086
0.824781
0.979499
1.09853
1.16132
1.14993
1.05504
0.880765
0.646699
0.384892
0.132611
-0.0771025
-0.22364
-0.302824
-0.325408
-0.311037
-0.280688
-0.25062
-0.229363
-0.218503
-0.215296
-0.215831
-0.217019
-0.217369
-0.216711
-0.215353
-0.213757
-0.212204
-0.210824
-0.209669
-0.208769
-0.208049
-0.207431
-0.206774
-0.206136
-0.205598
-0.205338
-0.205496
-0.2061
-0.206861
-0.207202
-0.206529
-0.204347
-0.20048
-0.195276
-0.189496
-0.184188
-0.180182
-0.177959
-0.177381
-0.177882
-0.178676
-0.178862
-0.177886
-0.175638
-0.172515
-0.169174
-0.166402
-0.164788
-0.164618
-0.165634
-0.167271
-0.168783
-0.169487
-0.169044
-0.167526
-0.165335
-0.162804
-0.160181
-0.157428
-0.154457
-0.151316
-0.148155
-0.145584
-0.144154
-0.144315
-0.146024
-0.148802
-0.151897
-0.154595
-0.156485
-0.157475
-0.157909
-0.158191
-0.158698
-0.159563
-0.160794
-0.162227
-0.163699
-0.165129
-0.166507
-0.167825
-0.168989
-0.169764
-0.169698
-0.168251
-0.164781
-0.15861
-0.149272
-0.136407
-0.120019
-0.100426
-0.0783597
-0.0548602
-0.0312032
-0.00867112
0.0116309
0.0289527
0.043038
0.0540983
0.0626802
0.06963
0.0758237
0.0819526
0.0884426
0.0953038
0.102118
0.1083
0.113226
0.116515
0.117988
0.117823
0.116405
0.114254
0.111777
0.109341
0.107146
0.105257
0.10364
0.10213
0.10051
0.0986299
0.0964532
0.0940215
0.0915856
0.089383
0.0876649
0.0864916
0.0858016
0.0853257
0.0846852
0.0835459
0.0817391
0.0791979
0.0759951
0.0721968
0.06792
0.0632853
0.0584607
0.0537216
0.0494546
0.0460244
0.0437387
0.0426933
0.0426173
0.043081
0.0436144
0.0438169
0.0435362
0.0429806
0.0422658
0.0416033
0.0410153
0.0403432
0.0393184
0.0378484
0.0359955
0.0339972
0.0321262
0.0305244
0.0291751
0.0278792
0.0263731
0.0244636
0.0221863
0.0196466
0.0170652
0.0146617
0.0126451
0.0110888
0.0100671
0.00953105
0.00939449
0.00954319
0.00988596
0.010304
0.0108571
0.011591
0.0125526
0.0137567
0.0151497
0.0166869
0.0184082
0.0203894
0.022927
0.0262369
0.0305787
0.035949
0.0420701
0.0484715
0.0545234
0.059684
0.0635919
0.0662829
0.0680799
0.0696237
0.0716991
0.0749358
0.0796263
0.0855739
0.0921564
0.0984453
0.103456
0.106477
0.10721
0.105855
0.10317
0.10015
0.0978732
0.0972614
0.098742
0.10216
0.106369
0.109587
0.109945
0.105933
0.0969816
0.0835994
0.067244
0.0497105
0.0326454
0.0171288
0.00367279
-0.00762923
-0.0166934
-0.0233511
-0.0273988
-0.0288354
-0.0280321
-0.0258503
-0.023389
-0.0216465
-0.0213791
-0.0229036
-0.0259667
-0.0299502
-0.0341599
-0.0380107
-0.0411318
-0.0434147
-0.0450538
-0.0463907
-0.0476203
-0.048688
-0.0493854
-0.0494246
-0.0485622
-0.0470719
-0.0457806
-0.0462804
-0.0506099
-0.0605923
-0.0774796
-0.101419
-0.130997
-0.163027
-0.192328
-0.212068
-0.214206
-0.189941
-0.130687
-0.0298017
0.11492
0.298529
0.506622
0.715142
0.892863
1.00752
1.03361
0.96034
0.796125
0.567737
0.313907
0.0755188
-0.11493
-0.239983
-0.299077
-0.305367
-0.278945
-0.239884
-0.203007
-0.176028
-0.160444
-0.153978
-0.152926
-0.154031
-0.155325
-0.155938
-0.155739
-0.154867
-0.153411
-0.151571
-0.149573
-0.147643
-0.145899
-0.144484
-0.143456
-0.142805
-0.142426
-0.142185
-0.141861
-0.141248
-0.140187
-0.138514
-0.136224
-0.133342
-0.130085
-0.12665
-0.123277
-0.120205
-0.117637
-0.115538
-0.113814
-0.112262
-0.110594
-0.108557
-0.106168
-0.103601
-0.101121
-0.0990352
-0.0974657
-0.0963681
-0.0955571
-0.0947886
-0.0938969
-0.0929174
-0.0920634
-0.0915635
-0.0916235
-0.0921548
-0.0928162
-0.0931269
-0.0925935
-0.0910084
-0.0885203
-0.0855306
-0.0826078
-0.0803469
-0.0789639
-0.0784283
-0.078492
-0.078905
-0.079412
-0.0799618
-0.0805495
-0.0811723
-0.0817458
-0.0821747
-0.082401
-0.0824518
-0.0826284
-0.083204
-0.0845374
-0.0867562
-0.0896623
-0.0928661
-0.0957616
-0.0977823
-0.0984685
-0.0974765
-0.0945839
-0.0897149
-0.0828183
-0.0739502
-0.0633017
-0.0513318
-0.0387699
-0.0264094
-0.0151195
-0.0054634
0.00234598
0.00866251
0.0142249
0.019965
0.0267472
0.0350414
0.0449271
0.0559863
0.0675525
0.0789071
0.0894434
0.0987396
0.106608
0.112979
0.117867
0.121269
0.123223
0.123742
0.122968
0.121257
0.119052
0.116909
0.115271
0.114248
0.113775
0.113577
0.113392
0.113106
0.1128
0.112651
0.112736
0.11293
0.112816
0.111944
0.10998
0.106802
0.102667
0.0980675
0.0934167
0.0890178
0.0849541
0.0811682
0.0775228
0.0740934
0.0710277
0.0685362
0.0667863
0.0656754
0.0649513
0.0642483
0.0631236
0.061278
0.0586943
0.0555553
0.0521749
0.0489773
0.0461973
0.0439628
0.0422624
0.0408502
0.0394571
0.0378667
0.0359998
0.0338963
0.0316604
0.0294096
0.027135
0.0247969
0.0222529
0.0194394
0.0163271
0.0130125
0.00966456
0.00653068
0.00381363
0.00165228
0.000110297
-0.000712312
-0.000921169
-0.000592178
0.000156871
0.00101132
0.00175003
0.00212443
0.00204742
0.00168475
0.00138182
0.00167091
0.00304046
0.00582277
0.0100313
0.015406
0.0214921
0.0277739
0.033797
0.039161
0.043655
0.0473023
0.0503267
0.053093
0.0561801
0.0600321
0.0649452
0.0707696
0.0770211
0.0828357
0.0872566
0.0895159
0.0892824
0.0867983
0.0828719
0.0786625
0.0753894
0.0741722
0.0756913
0.079918
0.0861333
0.0928808
0.0982661
0.100312
0.0975554
0.0893584
0.076027
0.0587947
0.0393717
0.0196201
0.00105425
-0.0152731
-0.0287184
-0.039171
-0.0466325
-0.0514009
-0.0539661
-0.0548846
-0.0547648
-0.0541876
-0.0536363
-0.0535653
-0.0541439
-0.0554031
-0.0571405
-0.0589477
-0.0603447
-0.0609794
-0.0607421
-0.0598082
-0.0585557
-0.0575034
-0.0569624
-0.0570634
-0.0576743
-0.0584555
-0.0590334
-0.0592364
-0.0592009
-0.0592726
-0.060244
-0.063083
-0.0688835
-0.0787074
-0.0932904
-0.112932
-0.137363
-0.165425
-0.194705
-0.221155
-0.23889
-0.240264
-0.216278
-0.15764
-0.056854
0.0887616
0.273804
0.482572
0.68908
0.860529
0.964189
0.976129
0.888935
0.715552
0.486873
0.243842
0.0263839
-0.136884
-0.234337
-0.271288
-0.264954
-0.236498
-0.20416
-0.178996
-0.164547
-0.159059
-0.158648
-0.159734
-0.160239
-0.15965
-0.158317
-0.156753
-0.155234
-0.15374
-0.152112
-0.150221
-0.148074
-0.145751
-0.143376
-0.141066
-0.138854
-0.136733
-0.134669
-0.132553
-0.130295
-0.127763
-0.124817
-0.121531
-0.118081
-0.114846
-0.112207
-0.110471
-0.109662
-0.109448
-0.109302
-0.108614
-0.107021
-0.104457
-0.101171
-0.0975744
-0.0941582
-0.0913555
-0.0893509
-0.0881236
-0.0875397
-0.0872179
-0.0868394
-0.0861751
-0.0851401
-0.0838171
-0.0823557
-0.0810012
-0.0798245
-0.0787777
-0.0777169
-0.0764663
-0.0749671
-0.0732694
-0.0715819
-0.0701284
-0.069135
-0.0686608
-0.0685961
-0.0686207
-0.0683758
-0.0675389
-0.0659301
-0.0636061
-0.0607424
-0.0577993
-0.0551794
-0.0533277
-0.0525152
-0.0528246
-0.0542059
-0.056435
-0.0591657
-0.0619254
-0.0643634
-0.0661553
-0.0671409
-0.0672613
-0.0664385
-0.0645484
-0.0613547
-0.0565115
-0.049732
-0.0410387
-0.0308137
-0.0199331
-0.00940431
-0.000277121
0.00677048
0.0115783
0.0145055
0.0163057
0.017895
0.0200976
0.0234918
0.0283032
0.034388
0.0415502
0.0493261
0.0572863
0.0650317
0.0722886
0.0788558
0.0846384
0.0896085
0.0937713
0.0973054
0.10041
0.103253
0.105882
0.108286
0.110358
0.111943
0.112898
0.113114
0.112584
0.111304
0.109419
0.107072
0.104457
0.101779
0.0991785
0.0968568
0.0948556
0.093179
0.0917961
0.0906748
0.0897083
0.0888026
0.0879222
0.0869149
0.0857533
0.0843813
0.0826557
0.0804072
0.0775742
0.0740677
0.0700246
0.0655984
0.061117
0.056872
0.0530872
0.0498387
0.0470736
0.0446924
0.0426121
0.0407625
0.039217
0.0380462
0.0372473
0.0367867
0.0364944
0.0361723
0.0355827
0.0346882
0.0334003
0.0318777
0.0302384
0.0285792
0.026957
0.0253868
0.0237504
0.0219993
0.0200381
0.0177469
0.0150922
0.0120484
0.00871103
0.00531161
0.00210871
-0.000584276
-0.00245578
-0.00341979
-0.00355327
-0.00318818
-0.00282021
-0.00283354
-0.0034928
-0.00484257
-0.00660584
-0.00845166
-0.00992236
-0.0107737
-0.0107752
-0.00986732
-0.00807138
-0.00542057
-0.0020042
0.00207572
0.00662595
0.0115879
0.0166773
0.0217461
0.0265836
0.0310359
0.0351077
0.0389374
0.0427038
0.0468459
0.0515958
0.0570797
0.0633965
0.0703717
0.0777434
0.0851959
0.0922431
0.0983657
0.103
0.105773
0.106449
0.10528
0.102955
0.100463
0.0989724
0.0994623
0.102407
0.107307
0.112751
0.116598
0.116563
0.111017
0.0994761
0.0829951
0.0638837
0.0447538
0.0279704
0.0147827
0.00505915
-0.00229919
-0.00879921
-0.0155955
-0.0229053
-0.0302537
-0.0367244
-0.0415251
-0.044299
-0.0453913
-0.0456437
-0.0459725
-0.0470044
-0.0488107
-0.0509951
-0.0529782
-0.0542111
-0.0545424
-0.0541417
-0.0534455
-0.0529098
-0.0528055
-0.053139
-0.0536765
-0.054232
-0.0547939
-0.055784
-0.0582045
-0.063425
-0.0728667
-0.0878238
-0.108805
-0.135337
-0.165473
-0.195355
-0.219243
-0.229874
-0.219105
-0.17886
-0.102693
0.0126599
0.165812
0.349905
0.552566
0.756876
0.942734
1.0893
1.17752
1.19303
1.12911
0.989066
0.786877
0.546047
0.296028
0.0667308
-0.117569
-0.243148
-0.308983
-0.324964
-0.307661
-0.275027
-0.24159
-0.215944
-0.200679
-0.1942
-0.193125
-0.194331
-0.195795
-0.196694
-0.196817
-0.196251
-0.194938
-0.192961
-0.190534
-0.187947
-0.185624
-0.183899
-0.1829
-0.182596
-0.182819
-0.183327
-0.183949
-0.184459
-0.184636
-0.184255
-0.183171
-0.181318
-0.178816
-0.175891
-0.172717
-0.169383
-0.165913
-0.162369
-0.158859
-0.15561
-0.152907
-0.150998
-0.149993
-0.149622
-0.149672
-0.14977
-0.149651
-0.149232
-0.148581
-0.147872
-0.147166
-0.146521
-0.145838
-0.145013
-0.143822
-0.142191
-0.140051
-0.137515
-0.134713
-0.131811
-0.129011
-0.126558
-0.124704
-0.123593
-0.123323
-0.123813
-0.124787
-0.12575
-0.126159
-0.125637
-0.123886
-0.121071
-0.117551
-0.114029
-0.111192
-0.109523
-0.109453
-0.110981
-0.113942
-0.11792
-0.122402
-0.12663
-0.129849
-0.131224
-0.129955
-0.125503
-0.117643
-0.106537
-0.0927687
-0.0774631
-0.0618737
-0.047344
-0.0349521
-0.0253633
-0.0185987
-0.0141493
-0.0110168
-0.00807922
-0.00432533
0.000936042
0.00797191
0.0165434
0.0261623
0.036047
0.0453985
0.0535182
0.0599438
0.0645503
0.067625
0.0697352
0.0714785
0.0735551
0.076369
0.0799994
0.0840115
0.0879282
0.090998
0.0928211
0.0932092
0.0923959
0.0907396
0.0887885
0.0869139
0.0853182
0.0839865
0.0828239
0.0816983
0.080598
0.0796296
0.0788995
0.0784966
0.078461
0.0787546
0.0791745
0.0794293
0.0792901
0.0785305
0.0769638
0.0745213
0.0711302
0.0668402
0.0616749
0.0558985
0.0498173
0.0438391
0.038399
0.0339265
0.0305959
0.0283992
0.0270592
0.0261647
0.0253299
0.0242977
0.0230635
0.021765
0.0206766
0.0200612
0.0199744
0.0202808
0.0206592
0.0207039
0.0199182
0.0180049
0.0147955
0.0103887
0.00513396
-0.000404494
-0.00548128
-0.00945533
-0.0119488
-0.0128356
-0.0123346
-0.0108849
-0.00906967
-0.00748856
-0.00666607
-0.00699162
-0.00859674
-0.0113903
-0.0150081
-0.0189025
-0.0224104
-0.0249505
-0.0261279
-0.0258359
-0.0242628
-0.0218789
-0.0192342
-0.016983
-0.0155131
-0.0150664
-0.0155494
-0.0165999
-0.0178501
-0.0189466
-0.019614
-0.0197656
-0.0193864
-0.0183636
-0.0164893
-0.0135228
-0.00926825
-0.00373722
0.00260665
0.00920957
0.0153953
0.0207708
0.0253813
0.0296913
0.0343099
0.0398747
0.0466214
0.0543264
0.0624089
0.0701566
0.0768233
0.0818866
0.0849602
0.0859319
0.0848666
0.0821813
0.0785238
0.0748456
0.0721783
0.0712197
0.0721289
0.0742174
0.0760541
0.0758769
0.0721828
0.0641064
0.0517549
0.0361387
0.0187396
0.00109459
-0.0154256
-0.0299997
-0.0421549
-0.0516406
-0.0584117
-0.0625512
-0.0644186
-0.0646377
-0.0639535
-0.0632216
-0.0629607
-0.0634477
-0.0646389
-0.0663989
-0.0685394
-0.070967
-0.0735879
-0.0762047
-0.0783275
-0.0794056
-0.0788948
-0.0765805
-0.0729763
-0.069552
-0.0685304
-0.0723826
-0.083204
-0.102171
-0.129028
-0.161255
-0.193908
-0.219494
-0.228056
-0.207891
-0.147591
-0.0389611
0.119166
0.317725
0.53589
0.743018
0.904107
0.988019
0.975832
0.866696
0.678617
0.444171
0.201915
-0.0131586
-0.177086
-0.280422
-0.32703
-0.329941
-0.305813
-0.269986
-0.233662
-0.203369
-0.181493
-0.167579
-0.159759
-0.155945
-0.154446
-0.154003
-0.153902
-0.153757
-0.153268
-0.152292
-0.150922
-0.14936
-0.147961
-0.147043
-0.146769
-0.14703
-0.147521
-0.147843
-0.147689
-0.146824
-0.145277
-0.143061
-0.140219
-0.13693
-0.133333
-0.129695
-0.126431
-0.123916
-0.122351
-0.121701
-0.121543
-0.121429
-0.120826
-0.119458
-0.117375
-0.114845
-0.112254
-0.109891
-0.1078
-0.10582
-0.103769
-0.101642
-0.0995883
-0.0978729
-0.0967594
-0.0963209
-0.0963421
-0.0965672
-0.0966663
-0.0964422
-0.0958262
-0.0949318
-0.0937856
-0.0923868
-0.0907289
-0.0887575
-0.0866593
-0.0846832
-0.0831029
-0.0820755
-0.0815828
-0.0813786
-0.0811013
-0.0804858
-0.0794505
-0.0783155
-0.0776041
-0.0779597
-0.0799216
-0.0838739
-0.0897002
-0.0969332
-0.104768
-0.112052
-0.117724
-0.120869
-0.121024
-0.11806
-0.112279
-0.104175
-0.0943865
-0.0836707
-0.0726712
-0.0620532
-0.0523944
-0.0439882
-0.0366564
-0.0299069
-0.0228708
-0.014673
-0.00478343
0.00688373
0.0198768
0.033282
0.0461226
0.0576924
0.0675925
0.075976
0.0832359
0.0898773
0.0963246
0.102791
0.109213
0.115338
0.120866
0.125429
0.128788
0.130909
0.131854
0.131904
0.131512
0.131077
0.130871
0.13097
0.131185
0.131142
0.130457
0.128724
0.125757
0.121595
0.116519
0.11099
0.105599
0.100887
0.0973097
0.0951154
0.0942742
0.094431
0.0951087
0.0956722
0.0955973
0.0945401
0.0925065
0.0897374
0.0866893
0.0839023
0.0816284
0.0799303
0.0785639
0.0772064
0.0755131
0.073395
0.0709341
0.0684979
0.0664135
0.0648775
0.0637688
0.0626951
0.0611909
0.0589
0.0557703
0.0521116
0.0484206
0.0451962
0.0426646
0.0408145
0.0393183
0.0378748
0.0363554
0.0348836
0.0337456
0.0331726
0.0332721
0.0338918
0.0347134
0.0354302
0.0357532
0.0356662
0.0351672
0.0343617
0.0333572
0.0322006
0.030983
0.0298774
0.0290068
0.0285324
0.028555
0.0289058
0.0293964
0.029798
0.0299376
0.0298185
0.0296748
0.0298424
0.0306266
0.0322605
0.034844
0.0383348
0.0426552
0.0475962
0.0530247
0.058664
0.0643059
0.0696902
0.0747341
0.0794531
0.0840062
0.0886657
0.0935714
0.0986938
0.103783
0.108245
0.11138
0.112669
0.111804
0.108991
0.105015
0.101037
0.0983288
0.0980822
0.100868
0.106309
0.113067
0.119063
0.122054
0.120372
0.113406
0.101836
0.087355
0.0721127
0.0578579
0.0456523
0.035454
0.0265294
0.0179639
0.00901756
-0.000462519
-0.0101236
-0.0193379
-0.0274565
-0.0339037
-0.0385794
-0.0416463
-0.0434737
-0.0444767
-0.0450829
-0.045576
-0.0460935
-0.0466243
-0.0470715
-0.0473437
-0.0472605
-0.0467057
-0.0457528
-0.0445118
-0.0433718
-0.0427004
-0.0432603
-0.0461684
-0.0528605
-0.0648987
-0.083618
-0.109541
-0.141482
-0.175844
-0.206354
-0.224391
-0.219316
-0.179871
-0.0962556
0.0367538
0.216304
0.428559
0.647771
0.839175
0.966079
0.999573
0.927765
0.761072
0.530698
0.280264
0.0536247
-0.117068
-0.218398
-0.255716
-0.247615
-0.217143
-0.1838
-0.159193
-0.146633
-0.143876
-0.146588
-0.150838
-0.15427
-0.156009
-0.156208
-0.155164
-0.153207
-0.150614
-0.147633
-0.144441
-0.141231
-0.138024
-0.134766
-0.131411
-0.127894
-0.124219
-0.120527
-0.117031
-0.114045
-0.11189
-0.110639
-0.110191
-0.11024
-0.11037
-0.110206
-0.109635
-0.108728
-0.107705
-0.106717
-0.105888
-0.10502
-0.103939
-0.102372
-0.10026
-0.0976022
-0.0945658
-0.0913193
-0.0879969
-0.0846444
-0.0812815
-0.0780058
-0.0748874
-0.0721085
-0.0698363
-0.068143
-0.067048
-0.0665433
-0.0665223
-0.0669411
-0.0676686
-0.0685659
-0.0694464
-0.0700959
-0.0703779
-0.0702674
-0.0698276
-0.069278
-0.0687766
-0.0684594
-0.0682961
-0.0682387
-0.0682164
-0.068223
-0.0684452
-0.0690697
-0.0703361
-0.0722962
-0.0748665
-0.0777019
-0.0803088
-0.0823331
-0.0835133
-0.0838581
-0.0834911
-0.0825208
-0.0808008
-0.0779252
-0.0731041
-0.0655112
-0.0544691
-0.0398388
-0.0221057
-0.00243612
0.0176512
0.0367443
0.053746
0.0682266
0.0803145
0.0905091
0.0994858
0.107563
0.114838
0.12104
0.125812
0.128856
0.130051
0.129597
0.127877
0.125564
0.123238
0.121433
0.120412
0.12022
0.120567
0.121084
0.121415
0.121259
0.120471
0.119113
0.117369
0.115425
0.113512
0.111718
0.110081
0.10858
0.106961
0.1051
0.102755
0.0997574
0.0960471
0.0916821
0.0868276
0.08179
0.0769013
0.0723664
0.0683665
0.0649373
0.0619774
0.0594172
0.0571949
0.0552997
0.0536734
0.0522588
0.0509113
0.0494463
0.0477267
0.0456623
0.0432894
0.0407503
0.0381294
0.0354497
0.0327247
0.0298124
0.0267504
0.0236437
0.0207207
0.0182278
0.016359
0.0150413
0.0140151
0.0128468
0.0112284
0.0090633
0.00662225
0.00430896
0.00265179
0.00199799
0.00232556
0.0033626
0.00463755
0.00565872
0.00620744
0.00632686
0.00640917
0.00699073
0.00857336
0.0114538
0.0156636
0.021011
0.0269193
0.0329032
0.0383997
0.0430327
0.0465153
0.0489012
0.0505059
0.0520004
0.0541597
0.0576335
0.0627682
0.0693652
0.0767067
0.0836866
0.0892855
0.0926602
0.0935302
0.0921882
0.089431
0.0862919
0.0838259
0.0828314
0.0837034
0.0861598
0.08919
0.0911864
0.0905655
0.0859442
0.0768683
0.0637097
0.0477334
0.0306147
0.0139843
-0.00106678
-0.0140558
-0.0249816
-0.0341711
-0.0418183
-0.0479623
-0.052571
-0.0556442
-0.0572974
-0.0579192
-0.0578715
-0.0576253
-0.0574388
-0.0573983
-0.0574668
-0.0574747
-0.0573824
-0.0572335
-0.0571056
-0.0572077
-0.0575806
-0.0582658
-0.059149
-0.0601299
-0.0611505
-0.0625436
-0.0650689
-0.0700728
-0.0791477
-0.0937403
-0.114821
-0.142221
-0.173859
-0.205267
-0.229546
-0.237299
-0.217252
-0.15804
-0.0511856
0.104844
0.300918
0.515066
0.714333
0.860981
0.92217
0.880253
0.739451
0.525945
0.281191
0.0501007
-0.131528
-0.245397
-0.292556
-0.288869
-0.256836
-0.217318
-0.184062
-0.16257
-0.151928
-0.148483
-0.148454
-0.149283
-0.150019
-0.150516
-0.150825
-0.150745
-0.149945
-0.148189
-0.14544
-0.141968
-0.13805
-0.134032
-0.130339
-0.127168
-0.124734
-0.123168
-0.122388
-0.122237
-0.122384
-0.122463
-0.12203
-0.120755
-0.118496
-0.115145
-0.110988
-0.106357
-0.10166
-0.097363
-0.0936268
-0.0904758
-0.0876578
-0.0848376
-0.0817777
-0.0784207
-0.0749774
-0.071799
-0.0693784
-0.0679862
-0.0677759
-0.0686174
-0.0702881
-0.0723521
-0.0744842
-0.076262
-0.0774135
-0.0777143
-0.0771144
-0.0757047
-0.0737069
-0.0714255
-0.0689754
-0.0665827
-0.0641845
-0.0616063
-0.0588073
-0.0558243
-0.0528988
-0.0504409
-0.0488486
-0.0484194
-0.0492654
-0.0511672
-0.0537708
-0.0567239
-0.0595684
-0.0621768
-0.064443
-0.0663953
-0.0681325
-0.0697037
-0.0711611
-0.0724362
-0.0734833
-0.0741044
-0.0739648
-0.0725478
-0.0693173
-0.0635774
-0.054949
-0.043374
-0.0293435
-0.0137139
0.00238627
0.0178547
0.031874
0.044031
0.0544327
0.063331
0.0711896
0.0782886
0.0847
0.0903387
0.095072
0.0986656
0.101151
0.102671
0.103398
0.103567
0.103394
0.102995
0.10251
0.102048
0.101703
0.101468
0.101273
0.100931
0.10031
0.0993041
0.0979638
0.0965452
0.0952749
0.0944225
0.0940012
0.0938897
0.0937555
0.0932783
0.0921894
0.0903903
0.0878605
0.0846946
0.080878
0.0763451
0.071184
0.0655441
0.0599136
0.0549465
0.0511994
0.0490588
0.0484476
0.0488538
0.0494879
0.0496031
0.0486302
0.0464695
0.0434045
0.0398611
0.0364997
0.0337443
0.0318821
0.0309652
0.0307811
0.0309404
0.0309923
0.0304326
0.0289395
0.0263827
0.0229289
0.0189492
0.0149944
0.0116066
0.00908118
0.00751273
0.00668304
0.00617574
0.00556932
0.00460688
0.00322267
0.00152704
-0.000140203
-0.0014453
-0.00218623
-0.00223062
-0.00176117
-0.00109725
-0.000540409
-0.000394823
-0.000677732
-0.00114086
-0.00143751
-0.00112769
7.77626e-5
0.00231899
0.00555116
0.00969769
0.014623
0.020242
0.0264661
0.0330134
0.0394731
0.0453103
0.0500942
0.0537219
0.0565449
0.0592926
0.0628358
0.0678856
0.0746399
0.0826316
0.0908315
0.0978736
0.102498
0.103991
0.102277
0.0979689
0.0923559
0.0869227
0.0832753
0.0825594
0.0852768
0.0908506
0.0977404
0.10371
0.106355
0.10385
0.0955835
0.082245
0.0657446
0.0483725
0.0322104
0.0184503
0.0071021
-0.00260184
-0.0116985
-0.0208566
-0.030111
-0.0387759
-0.0460483
-0.05128
-0.0544356
-0.0560534
-0.0572008
-0.0588401
-0.0615622
-0.0653784
-0.0697933
-0.0740138
-0.0773201
-0.0792767
-0.0798398
-0.0790802
-0.0772938
-0.0747344
-0.0717713
-0.0688424
-0.066766
-0.0667099
-0.0700512
-0.0781277
-0.0918955
-0.11178
-0.137357
-0.167223
-0.198818
-0.228794
-0.253443
-0.269308
-0.27373
-0.264841
-0.240816
-0.198389
-0.13209
-0.0350833
0.0979502
0.266195
0.45857
0.651751
0.81332
0.90938
0.914809
0.822337
0.646466
0.420216
0.185994
-0.0168277
-0.162106
-0.241807
-0.264754
-0.250002
-0.218816
-0.187992
-0.16652
-0.15624
-0.154488
-0.157075
-0.160479
-0.162585
-0.162699
-0.160891
-0.15762
-0.153453
-0.149122
-0.145284
-0.142546
-0.141237
-0.141262
-0.142222
-0.143497
-0.144319
-0.144085
-0.14235
-0.13898
-0.134268
-0.128819
-0.123448
-0.118978
-0.116011
-0.114737
-0.114978
-0.116138
-0.117523
-0.118502
-0.118629
-0.11763
-0.115462
-0.112179
-0.107984
-0.103214
-0.0984181
-0.0942449
-0.0911522
-0.0894622
-0.0890866
-0.0895735
-0.0902624
-0.0904601
-0.089714
-0.0878823
-0.085155
-0.0818486
-0.0784781
-0.0754447
-0.0730087
-0.0712379
-0.0700033
-0.0690851
-0.0681959
-0.0671095
-0.0657565
-0.0642845
-0.0629118
-0.0620294
-0.0618898
-0.0626172
-0.0641219
-0.0661768
-0.0685259
-0.0708437
-0.0730106
-0.0750588
-0.077147
-0.0794961
-0.0822791
-0.0856568
-0.0896918
-0.0943732
-0.0993414
-0.104039
-0.107629
-0.109201
-0.107754
-0.102765
-0.0941403
-0.0824011
-0.0685858
-0.0540079
-0.0399263
-0.0272084
-0.0161825
-0.00661061
0.00204265
0.0104979
0.0192802
0.0284864
0.0380033
0.0475001
0.0566324
0.0651616
0.0729627
0.0799301
0.0858886
0.0905957
0.0937542
0.0951719
0.0949785
0.0936006
0.0915243
0.0894573
0.0877527
0.0864978
0.0854808
0.0843152
0.0826623
0.0803841
0.0776305
0.0746324
0.0716601
0.0689327
0.0664799
0.064419
0.0627823
0.0616328
0.0610291
0.0608257
0.060663
0.0600743
0.0585428
0.0557334
0.0515759
0.0462892
0.0402676
0.0340616
0.0282374
0.0232288
0.0193688
0.016787
0.0152966
0.0144802
0.013768
0.0126573
0.0108507
0.00847699
0.00599844
0.00411391
0.00343289
0.00414741
0.00601382
0.00826593
0.00994437
0.0102512
0.00882346
0.00580883
0.00186106
-0.0022313
-0.00578292
-0.00847987
-0.0104456
-0.0120727
-0.0138051
-0.0158702
-0.0182715
-0.02079
-0.023167
-0.025262
-0.0270591
-0.028562
-0.0296861
-0.0301892
-0.0297404
-0.0281466
-0.0253318
-0.021593
-0.0175733
-0.0139324
-0.0112696
-0.00995901
-0.0100932
-0.0113177
-0.0131486
-0.0148642
-0.0158813
-0.0157427
-0.0142935
-0.0118143
-0.00870463
-0.0055258
-0.00253412
0.000253832
0.00321095
0.00686487
0.0117003
0.0180278
0.0259174
0.0350677
0.0450752
0.0554112
0.0653014
0.0739625
0.0805899
0.0844702
0.0852282
0.0830354
0.0787675
0.0738045
0.0697048
0.0676914
0.0682761
0.0708621
0.073903
0.0754629
0.0736897
0.0675122
0.0568443
0.0426288
0.0264038
0.00991948
-0.00534629
-0.0184517
-0.028968
-0.0369386
-0.0426945
-0.046809
-0.049842
-0.0523572
-0.0547143
-0.0570168
-0.0591919
-0.0609866
-0.0621562
-0.0627264
-0.0627979
-0.0626415
-0.0625529
-0.062671
-0.0628866
-0.0629355
-0.0625362
-0.0614494
-0.0596919
-0.0574139
-0.0551376
-0.0537358
-0.054397
-0.0585302
-0.0675981
-0.0827566
-0.104654
-0.132921
-0.165647
-0.198901
-0.226557
-0.240118
-0.228995
-0.182063
-0.0898918
0.0515839
0.23733
0.450551
0.662743
0.838125
0.941666
0.948789
0.853774
0.672698
0.440109
0.199394
-0.00926902
-0.15919
-0.242141
-0.266843
-0.2526
-0.220919
-0.188747
-0.16528
-0.152529
-0.148088
-0.148112
-0.149556
-0.150996
-0.152142
-0.153276
-0.1545
-0.155634
-0.156471
-0.156622
-0.15595
-0.154526
-0.152482
-0.150194
-0.147883
-0.145758
-0.143901
-0.142209
-0.140437
-0.138371
-0.135893
-0.133029
-0.130047
-0.127273
-0.124969
-0.123187
-0.121824
-0.120632
-0.119483
-0.118387
-0.117435
-0.116824
-0.116554
-0.116496
-0.116259
-0.115458
-0.113782
-0.111266
-0.108111
-0.10472
-0.101511
-0.0987295
-0.0963761
-0.0943621
-0.0924997
-0.0906633
-0.0888146
-0.087052
-0.0854519
-0.0841456
-0.0832357
-0.082756
-0.0826808
-0.0829772
-0.0835098
-0.084092
-0.0845212
-0.0845951
-0.0842949
-0.0837153
-0.0830842
-0.0826852
-0.0827447
-0.0832424
-0.0841342
-0.0851657
-0.0861164
-0.0868726
-0.0875906
-0.0884723
-0.0898178
-0.0918972
-0.0947865
-0.098324
-0.102223
-0.10603
-0.109249
-0.111341
-0.111747
-0.110032
-0.105939
-0.0994765
-0.0909537
-0.0809319
-0.0700218
-0.0587697
-0.0475453
-0.0364108
-0.0252299
-0.0137837
-0.00183475
0.010666
0.0235559
0.0365323
0.0492257
0.0612192
0.0721981
0.0820685
0.0908878
0.0988528
0.106116
0.112727
0.118744
0.124131
0.128814
0.13271
0.135773
0.137939
0.139173
0.139453
0.13882
0.137355
0.135289
0.13285
0.13025
0.127623
0.125007
0.122385
0.119785
0.117224
0.114771
0.112531
0.110513
0.108635
0.106777
0.104757
0.102599
0.100496
0.0986489
0.0973155
0.0965179
0.0960065
0.0953252
0.0939356
0.0913519
0.0874647
0.0825003
0.0770086
0.0717193
0.067266
0.0640331
0.0620983
0.0612186
0.0609742
0.0609023
0.0607267
0.0603155
0.0596316
0.0587275
0.0576369
0.0563426
0.054777
0.0528732
0.0505944
0.0480351
0.0452468
0.0423904
0.0396715
0.0372214
0.0351271
0.0334162
0.0319639
0.0305842
0.0290489
0.027118
0.0246663
0.0218158
0.018747
0.0158199
0.0133814
0.0117484
0.0110287
0.0110855
0.0116587
0.0124149
0.013029
0.0133823
0.0135774
0.0139723
0.0150234
0.0171475
0.0206712
0.0255835
0.0315899
0.0381838
0.0447659
0.0508077
0.0560517
0.0605498
0.0646397
0.0688047
0.0735514
0.0790845
0.085335
0.0917639
0.0976402
0.102096
0.104405
0.104294
0.10194
0.0980872
0.0938303
0.0902424
0.0884364
0.088989
0.0918536
0.0961948
0.100408
0.102488
0.100648
0.0937562
0.0817763
0.0658483
0.0477485
0.029522
0.0127432
-0.00169048
-0.0136154
-0.0233929
-0.0314668
-0.0380575
-0.0432308
-0.0469012
-0.0490307
-0.0497625
-0.0493181
-0.0481515
-0.0467077
-0.0452786
-0.0442106
-0.0436044
-0.0435248
-0.0439756
-0.0449658
-0.0463047
-0.0478424
-0.0493235
-0.0505313
-0.0514981
-0.0523015
-0.0536271
-0.0565616
-0.0626423
-0.0736091
-0.0908182
-0.114896
-0.145138
-0.178845
-0.211014
-0.234467
-0.240114
-0.217623
-0.156773
-0.0499399
0.10455
0.299194
0.514903
0.721878
0.884242
0.968433
0.95277
0.835319
0.635966
0.392146
0.148476
-0.0556801
-0.195962
-0.267295
-0.281447
-0.259742
-0.224533
-0.1924
-0.171268
-0.161511
-0.159275
-0.15986
-0.1599
-0.158149
-0.154932
-0.15137
-0.148434
-0.146618
-0.14588
-0.145904
-0.146222
-0.146462
-0.146352
-0.145824
-0.144884
-0.143606
-0.142059
-0.140307
-0.138351
-0.136359
-0.134402
-0.13269
-0.131308
-0.13027
-0.129447
-0.128555
-0.127349
-0.125548
-0.123011
-0.119727
-0.115906
-0.111819
-0.107731
-0.103951
-0.100772
-0.0983505
-0.0967821
-0.0960705
-0.0959597
-0.0962071
-0.0964057
-0.0963137
-0.0958185
-0.094922
-0.0938198
-0.0926204
-0.0914631
-0.0902354
-0.0888686
-0.0872331
-0.0852965
-0.0831265
-0.080848
-0.078608
-0.0765461
-0.0747257
-0.0731307
-0.0717398
-0.0705412
-0.0695365
-0.0686716
-0.0679889
-0.0675012
-0.0671705
-0.0670978
-0.0673479
-0.0680805
-0.0694399
-0.0714478
-0.0741079
-0.0772762
-0.0807603
-0.0843411
-0.0877583
-0.0907441
-0.0929407
-0.0938523
-0.0929053
-0.0895898
-0.0834691
-0.0745061
-0.0629307
-0.049429
-0.0349716
-0.0205613
-0.00714187
0.00464571
0.0146785
0.0231729
0.0306983
0.0378693
0.0451844
0.0529015
0.0609078
0.0688399
0.0762919
0.0828717
0.0884544
0.0930664
0.0967895
0.0996996
0.101776
0.10286
0.102838
0.101805
0.09999
0.0978505
0.0958987
0.0945905
0.0941687
0.0945596
0.0954578
0.0964457
0.0970542
0.0969242
0.0958968
0.0940829
0.0917699
0.0893555
0.087175
0.0854186
0.0840736
0.0829607
0.0817448
0.0801835
0.0780797
0.0753627
0.072073
0.0683226
0.0642506
0.0599844
0.0556321
0.0514574
0.0476119
0.0443249
0.0417182
0.0397699
0.038396
0.0373136
0.036199
0.0349227
0.0334273
0.0317844
0.0301158
0.0285013
0.0269799
0.0254173
0.0236558
0.0215821
0.0191571
0.0164154
0.0135329
0.0108002
0.00845029
0.00666888
0.00538105
0.00437024
0.00331299
0.0018415
-0.000215375
-0.00272317
-0.00533891
-0.00767905
-0.00942779
-0.0104903
-0.0110236
-0.0113814
-0.0118442
-0.0125669
-0.0134636
-0.014322
-0.0149248
-0.0151186
-0.0147448
-0.013751
-0.0120321
-0.00935745
-0.00552862
-0.000453957
0.00578418
0.0127507
0.0198945
0.026594
0.0323624
0.0369801
0.040667
0.0437371
0.0466482
0.0499851
0.0540321
0.0590052
0.0647762
0.0710466
0.0772444
0.0827377
0.0868899
0.0891821
0.0893342
0.0875714
0.0845323
0.081291
0.0790339
0.0788649
0.0812915
0.0859144
0.0913582
0.0956448
0.096778
0.0933452
0.0850628
0.0728644
0.0582989
0.0431383
0.0287219
0.0155484
0.00355061
-0.00773815
-0.0185324
-0.028685
-0.0376991
-0.0450278
-0.0504288
-0.0540353
-0.0562496
-0.057563
-0.0582631
-0.0584917
-0.0580991
-0.0571619
-0.0558856
-0.0547046
-0.054185
-0.0547223
-0.0563434
-0.0586746
-0.0610222
-0.0628058
-0.0636139
-0.0636165
-0.0635327
-0.0646718
-0.0687561
-0.0774136
-0.0920161
-0.113145
-0.140291
-0.171422
-0.202395
-0.227181
-0.237609
-0.223801
-0.175301
-0.0834073
0.0554893
0.236191
0.442058
0.645033
0.809979
0.902737
0.899895
0.797096
0.611815
0.379537
0.1439
-0.0557363
-0.194317
-0.26567
-0.280315
-0.258736
-0.222719
-0.18877
-0.165225
-0.152988
-0.149005
-0.149044
-0.149961
-0.150159
-0.149488
-0.148277
-0.146935
-0.145608
-0.144433
-0.143394
-0.142559
-0.141856
-0.141206
-0.140504
-0.139667
-0.138649
-0.137553
-0.136418
-0.135294
-0.134171
-0.132991
-0.131729
-0.130345
-0.128813
-0.12707
-0.125152
-0.122916
-0.12032
-0.117283
-0.113767
-0.109741
-0.105263
-0.100342
-0.0951504
-0.0898743
-0.0848779
-0.0805569
-0.077399
-0.0757072
-0.0755531
-0.0767059
-0.078703
-0.0809532
-0.0829005
-0.0841942
-0.084685
-0.0844068
-0.0834591
-0.0819313
-0.0799639
-0.0776826
-0.0752293
-0.0728756
-0.0707133
-0.0687517
-0.0668798
-0.0649524
-0.0627881
-0.0603791
-0.0577732
-0.0549965
-0.0521599
-0.0493144
-0.0465265
-0.0440489
-0.0422367
-0.0415196
-0.0422556
-0.0446103
-0.0484102
-0.0532791
-0.0585414
-0.0635715
-0.0678984
-0.0711735
-0.0731897
-0.0738297
-0.072951
-0.0702381
-0.0654024
-0.0582377
-0.0488333
-0.0377245
-0.0259141
-0.0147268
-0.00535959
0.0013379
0.00524018
0.00690766
0.00737191
0.00785275
0.00926423
0.0120577
0.0161857
0.0212933
0.026915
0.0328295
0.038903
0.0451103
0.0514466
0.0577637
0.0638512
0.0694458
0.0744666
0.0788353
0.082633
0.0859966
0.0889883
0.0916207
0.0936635
0.0949055
0.0950791
0.0939361
0.0914226
0.0877611
0.0834232
0.0789834
0.0751084
0.0722537
0.0705619
0.069839
0.0696995
0.0697307
0.0695987
0.0691293
0.0682333
0.0669154
0.0650754
0.0628044
0.0601808
0.0575355
0.0552666
0.0537316
0.053087
0.0530122
0.0529773
0.0523564
0.050572
0.0475593
0.0436562
0.0394796
0.0356266
0.0325466
0.0303006
0.0285824
0.0269736
0.0250626
0.0226915
0.0200308
0.0174049
0.0151696
0.0135322
0.0124187
0.0114824
0.0102153
0.00820465
0.00525365
0.00157999
-0.00235865
-0.00594221
-0.00857304
-0.00994912
-0.0102445
-0.00985679
-0.00940957
-0.00943001
-0.0101079
-0.0112002
-0.0122155
-0.0126885
-0.0123211
-0.0112812
-0.0101037
-0.0093411
-0.00949352
-0.0107436
-0.0128753
-0.0154204
-0.0178968
-0.0197869
-0.0208707
-0.0210196
-0.0203056
-0.0189607
-0.0171785
-0.0150282
-0.0125187
-0.00960222
-0.00620626
-0.00234734
0.0018315
0.00625993
0.0108664
0.0156508
0.0206864
0.0259477
0.0311972
0.0361057
0.0403728
0.0437741
0.0463984
0.0486816
0.0511528
0.0542733
0.0582932
0.0630823
0.0684449
0.073837
0.078816
0.0828898
0.0857029
0.0868718
0.0862863
0.0841633
0.0811095
0.0781255
0.0763105
0.0765038
0.0789201
0.0827817
0.086415
0.0877487
0.0849869
0.0771139
0.0644584
0.0483074
0.0305947
0.0131839
-0.00258972
-0.0162145
-0.0277989
-0.0377581
-0.0465292
-0.0541307
-0.0604434
-0.0651634
-0.0681118
-0.069429
-0.0695061
-0.0688899
-0.0681311
-0.067703
-0.0676871
-0.0679223
-0.0681496
-0.067981
-0.0671533
-0.0656365
-0.0636674
-0.061572
-0.059888
-0.0592586
-0.0606962
-0.0653944
-0.0747328
-0.0899795
-0.111928
-0.140291
-0.173075
-0.20604
-0.232554
-0.243565
-0.228243
-0.175282
-0.075867
0.0726558
0.263058
0.475992
0.680892
0.841314
0.923864
0.90782
0.792421
0.598616
0.363884
0.131717
-0.060438
-0.190427
-0.254675
-0.265508
-0.243716
-0.21035
-0.180667
-0.161625
-0.153385
-0.152471
-0.15475
-0.157492
-0.159628
-0.161286
-0.162847
-0.164314
-0.165345
-0.165397
-0.164041
-0.161113
-0.156812
-0.151608
-0.14608
-0.14089
-0.136671
-0.133942
-0.132925
-0.133464
-0.135021
-0.136637
-0.137405
-0.136671
-0.134232
-0.130592
-0.126634
-0.123291
-0.121304
-0.120788
-0.121285
-0.122017
-0.12208
-0.120862
-0.118173
-0.114391
-0.110114
-0.106046
-0.102699
-0.100328
-0.0988216
-0.0978234
-0.0968887
-0.0955509
-0.0935219
-0.0907645
-0.0875588
-0.0843881
-0.0817994
-0.0802038
-0.0797271
-0.0800407
-0.080491
-0.0803815
-0.0792018
-0.0769059
-0.0739984
-0.071269
-0.0695554
-0.069349
-0.0707005
-0.0731106
-0.0758602
-0.0780856
-0.0792458
-0.0790627
-0.0776948
-0.0755596
-0.0732001
-0.0711561
-0.0700055
-0.0701551
-0.0718186
-0.0750071
-0.0795766
-0.0850245
-0.0906796
-0.0957519
-0.0994644
-0.101174
-0.100438
-0.0970997
-0.091339
-0.083692
-0.0748409
-0.0657502
-0.0572433
-0.0499671
-0.0441002
-0.0394407
-0.0353844
-0.0311664
-0.0260443
-0.0195331
-0.0114872
-0.00213238
0.00811318
0.0187046
0.0291939
0.0391642
0.0485331
0.0571286
0.0649216
0.0717504
0.0774382
0.0819033
0.0852545
0.0876439
0.089534
0.0913997
0.0935224
0.0960352
0.0987464
0.101274
0.103252
0.104475
0.104875
0.10466
0.10412
0.103474
0.102836
0.102105
0.101045
0.0994475
0.0971478
0.0941783
0.090709
0.0869707
0.0831983
0.0796116
0.0763708
0.0735217
0.0710714
0.0690815
0.0674701
0.0662534
0.065401
0.064888
0.0645632
0.0643144
0.0639957
0.0634073
0.0625578
0.0614085
0.0600046
0.0584401
0.0567997
0.0551862
0.0537403
0.0525762
0.0517594
0.0512657
0.050883
0.0503884
0.0494253
0.0477605
0.045326
0.0422232
0.0386787
0.0349391
0.0313019
0.0280263
0.0253665
0.0234567
0.0224298
0.022325
0.0230602
0.0244236
0.026083
0.0277084
0.0290217
0.0298502
0.0300834
0.0297885
0.0290448
0.0279571
0.0266611
0.0252504
0.0237695
0.0221823
0.0204176
0.0183473
0.0159365
0.0132123
0.0102179
0.00720334
0.00443358
0.00216301
0.000612051
6.24794e-5
0.000698587
0.00260594
0.00576893
0.00997417
0.0149776
0.0204412
0.0260678
0.0316893
0.0373659
0.04309
0.0489915
0.055084
0.0613196
0.0676109
0.0738433
0.0799858
0.0859972
0.0918565
0.0974288
0.102487
0.106706
0.109695
0.111104
0.110856
0.10906
0.106067
0.102447
0.0989168
0.0962251
0.0951852
0.0963
0.0996227
0.1045
0.109482
0.112659
0.112306
0.107307
0.0977539
0.0847743
0.0702361
0.0559868
0.0432244
0.032212
0.0224309
0.0129821
0.00310405
-0.00729678
-0.0177386
-0.0273999
-0.0355585
-0.0417927
-0.0461831
-0.0491884
-0.051348
-0.0530949
-0.0545849
-0.0557268
-0.0564286
-0.0567172
-0.0566726
-0.0565571
-0.0565903
-0.0567184
-0.0566975
-0.0561459
-0.0548093
-0.0526898
-0.0502562
-0.0484664
-0.0487642
-0.0528157
-0.0621148
-0.0777471
-0.100031
-0.12805
-0.159097
-0.18831
-0.208797
-0.212023
-0.188975
-0.131436
-0.0339497
0.104237
0.278317
0.477625
0.686365
0.885258
1.05362
1.17154
1.22245
1.19595
1.09022
0.913831
0.685809
0.433433
0.187652
-0.0231246
-0.179071
-0.272753
-0.309477
-0.304001
-0.275097
-0.240143
-0.211187
-0.193555
-0.186861
-0.187679
-0.191939
-0.196392
-0.199415
-0.200585
-0.200244
-0.198894
-0.197007
-0.194904
-0.192697
-0.190455
-0.188104
-0.185577
-0.182878
-0.180007
-0.177133
-0.17441
-0.171893
-0.169709
-0.167739
-0.165747
-0.16359
-0.161138
-0.158328
-0.155302
-0.152235
-0.149318
-0.146718
-0.144492
-0.142631
-0.14106
-0.139604
-0.13821
-0.136836
-0.135449
-0.134083
-0.13276
-0.13152
-0.130349
-0.129187
-0.128057
-0.12699
-0.126074
-0.125402
-0.124877
-0.124367
-0.123661
-0.122513
-0.120964
-0.119228
-0.117692
-0.116856
-0.117038
-0.118254
-0.120249
-0.122393
-0.124041
-0.124779
-0.124408
-0.123104
-0.121321
-0.119653
-0.118676
-0.118765
-0.120091
-0.122599
-0.126021
-0.129962
