-0.0174129
-0.0159464
-0.0147912
-0.0141914
-0.0142783
-0.0149894
-0.0160476
-0.0169946
-0.0171162
-0.0156651
-0.0120217
-0.00589881
0.00243996
0.0123131
0.0226192
0.0322709
0.040501
0.0471141
0.052475
0.0572531
0.0621665
0.0675156
0.0730638
0.0781601
0.0819088
0.0835982
0.0829982
0.0802758
0.076084
0.0712877
0.0667277
0.063153
0.0612114
0.0614575
0.0641289
0.0689361
0.0747428
0.0797804
0.0818659
0.0790847
0.0703994
0.0560347
0.0375437
0.0172588
-0.00238244
-0.0194366
-0.0328683
-0.0424042
-0.0483994
-0.0514321
-0.0522148
-0.0513951
-0.0498137
-0.0481514
-0.047022
-0.046817
-0.0475535
-0.0489207
-0.0504799
-0.0517549
-0.0525396
-0.0529524
-0.0531647
-0.0534514
-0.0537937
-0.0540402
-0.0540565
-0.0537456
-0.0534723
-0.0541455
-0.057272
-0.0647149
-0.0783275
-0.0994304
-0.128094
-0.162775
-0.19983
-0.233431
-0.256056
-0.259555
-0.236004
-0.178718
-0.0829894
0.0531274
0.227664
0.433026
0.654673
0.870629
1.05274
1.17119
1.20114
1.1303
0.964301
0.72728
0.457024
0.195644
-0.0208627
-0.170999
-0.25089
-0.272128
-0.255263
-0.221982
-0.188926
-0.165156
-0.152634
-0.148882
-0.150034
-0.152881
-0.155608
-0.157729
-0.159381
-0.160605
-0.161371
-0.161648
-0.161473
-0.160962
-0.160232
-0.159356
-0.158308
-0.15698
-0.155444
-0.153812
-0.152338
-0.15122
-0.150608
-0.150291
-0.149988
-0.149298
-0.147882
-0.14558
-0.142439
-0.138682
-0.134578
-0.130363
-0.126313
-0.12257
-0.119318
-0.116791
-0.115099
-0.114277
-0.114119
-0.114239
-0.114155
-0.113542
-0.112251
-0.110526
-0.108687
-0.107141
-0.106166
-0.105724
-0.10554
-0.105304
-0.104677
-0.10355
-0.101993
-0.100249
-0.0985742
-0.097116
-0.095823
-0.094577
-0.0931547
-0.0915053
-0.0896824
-0.0880481
-0.0870319
-0.0869855
-0.0881212
-0.0904411
-0.0936634
-0.0974176
-0.101391
-0.105223
-0.108799
-0.111926
-0.114511
-0.116432
-0.117518
-0.117723
-0.11702
-0.115453
-0.113038
-0.10967
-0.105077
-0.0989069
-0.0908967
-0.0809472
-0.0693268
-0.0566644
-0.0438089
-0.0316953
-0.0210906
-0.0124781
-0.00604914
-0.00166411
0.000989487
0.00226641
0.00269635
0.00262705
0.00258808
0.00301814
0.00455095
0.00769681
0.0128598
0.0201721
0.0293698
0.0398274
0.0505887
0.0606368
0.0690996
0.0755622
0.0801224
0.0832652
0.085727
0.0881233
0.0906931
0.0933744
0.0957799
0.0974243
0.098105
0.0978792
0.097078
0.0962533
0.0957436
0.0957591
0.0962202
0.0969272
0.0974963
0.0976193
0.0969575
0.0953356
0.0927618
0.089378
0.0854779
0.0814879
0.077739
0.0744969
0.0717576
0.0694146
0.0672715
0.0651787
0.0630822
0.0610829
0.059243
0.0576069
0.0559922
0.0541387
0.0517965
0.0488419
0.04546
0.0420095
0.0389449
0.0365072
0.0347338
0.0333254
0.031915
0.0301998
0.0279509
0.0251775
0.0220142
0.0185059
0.0148264
0.0110817
0.00752946
0.00449625
0.00232477
0.00123841
0.00111344
0.00157378
0.00207024
0.00200992
0.00104917
-0.000803566
-0.00323909
-0.00581233
-0.00816888
-0.010168
-0.0118711
-0.0135928
-0.0155052
-0.0175202
-0.0193427
-0.0205299
-0.0206539
-0.0195198
-0.0174108
-0.0149063
-0.0128165
-0.0118376
-0.0123825
-0.0142926
-0.017105
-0.0201054
-0.0225509
-0.0240217
-0.0244261
-0.0240382
-0.0232983
-0.0226513
-0.0224739
-0.0228345
-0.0236371
-0.0246423
-0.0256857
-0.0264851
-0.0269717
-0.0271191
-0.0269401
-0.0263288
-0.0250772
-0.0229273
-0.0196168
-0.0148995
-0.00871563
-0.00123552
0.00729466
0.016439
0.025795
0.0349803
0.0436479
0.0516214
0.05879
0.0650299
0.0701542
0.0739968
0.0764385
0.0775381
0.077498
0.0767129
0.0755891
0.0743966
0.0732434
0.0719181
0.0702535
0.0680902
0.0653831
0.0622788
0.059135
0.0564248
0.0546826
0.0545342
0.0562033
0.0593066
0.0627338
0.0646576
0.0631884
0.0568288
0.0451151
0.0289677
0.0105513
-0.00754351
-0.0229428
-0.0342092
-0.0411911
-0.0447437
-0.0462373
-0.0470891
-0.0482978
-0.0501805
-0.0526674
-0.0554913
-0.0583648
-0.0611649
-0.0639121
-0.0666498
-0.0693175
-0.0717085
-0.0734776
-0.0742847
-0.0738521
-0.072066
-0.0691
-0.065635
-0.0628872
-0.0625767
-0.0669821
-0.0783548
-0.0984123
-0.12764
-0.16443
-0.204865
-0.242719
-0.270091
-0.2785
-0.259822
-0.20712
-0.115477
0.0170145
0.187838
0.388579
0.603483
0.809644
0.978825
1.08261
1.09915
1.0199
0.853781
0.626414
0.374604
0.137131
-0.054924
-0.184827
-0.252093
-0.269257
-0.25545
-0.229385
-0.204376
-0.186766
-0.177142
-0.172971
-0.171191
-0.169831
-0.168216
-0.166719
-0.165874
-0.16596
-0.166768
-0.167847
-0.168463
-0.168078
-0.166333
-0.163292
-0.159392
-0.155284
-0.151627
-0.148931
-0.147328
-0.146616
-0.146351
-0.146035
-0.145311
-0.144077
-0.142389
-0.140462
-0.138493
-0.136638
-0.134917
-0.133257
-0.131683
-0.130177
-0.128747
-0.127397
-0.126167
-0.125093
-0.12423
-0.123639
-0.123313
-0.122998
-0.122373
-0.120993
-0.118635
-0.115469
-0.112172
-0.109554
-0.108409
-0.109157
-0.111558
-0.114892
-0.118279
-0.120972
-0.1226
-0.123014
-0.122213
-0.120313
-0.117324
-0.11341
-0.108936
-0.104619
-0.101273
-0.099569
-0.0998584
-0.101878
-0.105035
-0.108617
-0.112052
-0.115265
-0.118452
-0.122074
-0.126464
-0.13182
-0.137959
-0.144329
-0.150304
-0.155146
-0.158228
-0.15908
-0.157326
-0.152693
-0.145141
-0.134726
-0.121875
-0.107355
-0.0922523
-0.0777462
-0.0648774
-0.0543036
-0.0459766
-0.0393963
-0.0336949
-0.0280011
-0.0217119
-0.0144303
-0.00614215
0.00300481
0.0127474
0.0227871
0.0327249
0.0420844
0.0504628
0.0575226
0.0632408
0.0677985
0.0716181
0.0751922
0.0789431
0.0831163
0.0876565
0.0923429
0.0968036
0.100633
0.103463
0.105111
0.105618
0.105197
0.104232
0.103154
0.102327
0.101835
0.101516
0.101151
0.100438
0.099254
0.0976499
0.0957991
0.0938984
0.0920965
0.0903279
0.0884747
0.086461
0.0842238
0.0818233
0.0793291
0.0768157
0.0743636
0.0719385
0.0695082
0.0670602
0.0646119
0.0621042
0.0596269
0.0572312
0.0550004
0.053034
0.0513874
0.0500339
0.0487885
0.0474436
0.0457354
0.0435755
0.0409602
0.0380681
0.0351518
0.0323872
0.0298681
0.0275741
0.0253922
0.0232429
0.0211541
0.0192483
0.0175779
0.0162396
0.0152495
0.014534
0.0141289
0.0140772
0.0144082
0.0150855
0.0159103
0.0165668
0.0167324
0.0163027
0.0154263
0.0144219
0.0137356
0.0136206
0.0140513
0.0146819
0.0149711
0.0144755
0.0129753
0.0104141
0.00703107
0.00314423
-0.000914324
-0.0048085
-0.00811943
-0.0104527
-0.0115535
-0.011222
-0.00959084
-0.00693749
-0.00376479
-0.000547017
0.0023534
0.00473162
0.00659211
0.00801002
0.0090168
0.00970672
0.0100673
0.0101067
0.00995894
0.00986142
0.0102636
0.0117123
0.0146937
0.0194308
0.0257199
0.0329308
0.0401631
0.0466544
0.0520493
0.0565563
0.0608764
0.0657798
0.0718669
0.079209
0.0872677
0.0950549
0.101511
0.105755
0.10744
0.106678
0.104075
0.100393
0.0963118
0.0924182
0.0889577
0.0861945
0.0843613
0.0838524
0.0848524
0.087246
0.0902123
0.0924013
0.09207
0.0877112
0.0785354
0.0647549
0.0476501
0.02919
0.0115575
-0.0035145
-0.0149796
-0.0225116
-0.026513
-0.0277564
-0.0271924
-0.025739
-0.0241548
-0.0229738
-0.0224471
-0.0227084
-0.023627
-0.0249546
-0.0263595
-0.0276495
-0.0286776
-0.0294656
-0.030034
-0.0304291
-0.0305242
-0.0301891
-0.0294544
-0.0284852
-0.0279856
-0.0291196
-0.0336546
-0.0434449
-0.0600944
-0.0843451
-0.115457
-0.150355
-0.183349
-0.206251
-0.209148
-0.181826
-0.115326
-0.00390035
0.153177
0.350023
0.573386
0.802636
1.01141
1.17102
1.25533
1.2467
1.14108
0.950581
0.702286
0.43261
0.179205
-0.0274688
-0.170241
-0.247301
-0.269713
-0.256008
-0.225553
-0.193684
-0.169255
-0.154965
-0.149374
-0.149207
-0.15141
-0.153921
-0.15576
-0.156555
-0.156315
-0.155094
-0.153159
-0.15093
-0.148847
-0.147275
-0.146367
-0.14594
-0.145638
-0.145127
-0.144205
-0.142986
-0.141714
-0.14065
-0.139945
-0.139442
-0.138838
-0.137802
-0.136144
-0.133902
-0.131307
-0.128722
-0.126367
-0.124404
-0.122741
-0.121255
-0.11979
-0.118292
-0.116709
-0.115037
-0.113251
-0.111352
-0.109438
-0.107697
-0.106532
-0.106312
-0.107289
-0.109438
-0.112458
-0.115814
-0.11886
-0.121077
-0.12214
-0.121981
-0.120816
-0.118989
-0.116969
-0.115224
-0.114114
-0.113754
-0.114162
-0.115078
-0.116166
-0.117134
-0.117707
-0.117783
-0.117441
-0.116994
-0.116847
-0.117499
-0.11928
-0.122419
-0.12687
-0.132366
-0.1384
-0.144466
-0.150024
-0.154609
-0.157893
-0.159467
-0.158968
-0.155946
-0.150015
-0.140872
-0.128522
-0.113386
-0.0962413
-0.0782218
-0.0605086
-0.044131
-0.0298135
-0.0178242
-0.00795821
0.000362468
0.00794636
0.0155321
0.0237774
0.0330177
0.0432316
0.0541592
0.0652487
0.0759502
0.0857281
0.0942354
0.101343
0.107009
0.111402
0.114672
0.116951
0.11838
0.119071
0.119111
0.118661
0.11788
0.116915
0.115866
0.114842
0.113877
0.112973
0.112123
0.111317
0.11063
0.109999
0.109465
0.109108
0.108917
0.108995
0.109356
0.109978
0.110653
0.111187
0.111281
0.110691
0.109227
0.106887
0.103803
0.100206
0.0964163
0.0927073
0.0891988
0.0859184
0.0828397
0.0797983
0.0767655
0.073685
0.0705458
0.0673864
0.0641984
0.0611726
0.0585275
0.0564314
0.0551078
0.0544889
0.0543819
0.0544438
0.054351
0.0538163
0.0528888
0.0516434
0.0502289
0.0486471
0.0468367
0.0445859
0.0417531
0.0383542
0.0346497
0.0310446
0.0278664
0.0253693
0.0235048
0.0220762
0.0208324
0.0195404
0.0181861
0.0168487
0.0157023
0.0148424
0.0142077
0.0137152
0.0132315
0.0126856
0.0121414
0.0117799
0.0116664
0.0117796
0.0119012
0.0117597
0.0109341
0.00913467
0.00628383
0.00251638
-0.00180805
-0.00633745
-0.0106483
-0.0144046
-0.0173356
-0.0192279
-0.0199565
-0.0195519
-0.0181312
-0.0159561
-0.0133446
-0.0105031
-0.00743954
-0.00397617
0.000251159
0.00564561
0.012323
0.0201432
0.0286103
0.0370604
0.0448692
0.0515097
0.0567905
0.0608182
0.0639758
0.0666218
0.0690706
0.071535
0.0740957
0.076691
0.0792363
0.0815406
0.083326
0.0842621
0.0840985
0.0826067
0.0798439
0.075984
0.0714182
0.0666385
0.0621959
0.0586631
0.0566954
0.0568687
0.0594096
0.0639636
0.0692979
0.0736423
0.0749574
0.0716398
0.0629493
0.0493399
0.0323009
0.0138881
-0.00382864
-0.019245
-0.0314982
-0.0403533
-0.046117
-0.0493683
-0.0509789
-0.0517247
-0.0524207
-0.0534987
-0.0550708
-0.0568679
-0.0583849
-0.0591878
-0.0590161
-0.0579912
-0.0564052
-0.0546015
-0.0528357
-0.0513522
-0.0503422
-0.050262
-0.0520567
-0.0570288
-0.0666382
-0.0821859
-0.104399
-0.133096
-0.166514
-0.201077
-0.231012
-0.248669
-0.245404
-0.212736
-0.143491
-0.0328883
0.120391
0.312769
0.534528
0.76872
0.990948
1.17149
1.27997
1.29251
1.1995
1.01058
0.754318
0.472049
0.207425
-0.00462846
-0.145907
-0.216868
-0.232999
-0.216882
-0.19013
-0.167545
-0.15545
-0.153405
-0.157608
-0.163875
-0.169447
-0.173327
-0.175838
-0.17755
-0.178864
-0.179817
-0.180109
-0.179459
-0.177649
-0.174641
-0.170666
-0.166081
-0.161336
-0.156831
-0.15284
-0.149502
-0.146804
-0.144726
-0.143197
-0.142138
-0.141465
-0.141019
-0.14056
-0.139831
-0.138587
-0.136722
-0.134317
-0.131667
-0.129146
-0.127112
-0.125788
-0.125234
-0.125293
-0.125737
-0.126309
-0.126803
-0.127076
-0.127176
-0.127114
-0.126944
-0.126669
-0.12625
-0.125586
-0.124649
-0.123495
-0.122416
-0.121662
-0.121437
-0.121779
-0.12251
-0.1233
-0.123761
-0.123623
-0.122746
-0.121228
-0.119229
-0.116984
-0.114664
-0.112501
-0.110631
-0.109242
-0.108564
-0.108816
-0.110178
-0.112718
-0.116378
-0.120856
-0.125707
-0.130379
-0.134394
-0.137516
-0.139598
-0.140684
-0.140664
-0.139131
-0.135482
-0.128998
-0.119129
-0.105767
-0.0895895
-0.0717523
-0.0538174
-0.0372289
-0.0229784
-0.0113219
-0.00198601
0.00582337
0.0130353
0.0204107
0.0284856
0.0373366
0.0467525
0.0562817
0.065417
0.0737232
0.0808443
0.0866298
0.0910751
0.094385
0.0967702
0.0985162
0.0998287
0.100946
0.101892
0.10263
0.103095
0.103209
0.102933
0.102339
0.101522
0.100541
0.0994339
0.0981871
0.0968172
0.0954398
0.0942731
0.0936113
0.0936445
0.0943572
0.0955365
0.0966895
0.0972567
0.0967576
0.0949558
0.0919323
0.0880415
0.0837188
0.0792804
0.0749023
0.070547
0.0660279
0.0612374
0.0562268
0.051259
0.046775
0.0430659
0.0403053
0.0384425
0.0371846
0.0361448
0.0350085
0.0335392
0.0316707
0.0295932
0.0275395
0.0257935
0.0245082
0.023779
0.023496
0.0234282
0.0232586
0.0227433
0.0216463
0.0199685
0.0176838
0.0148637
0.0115885
0.00793192
0.00402018
0.000153606
-0.00344981
-0.00637666
-0.00831807
-0.00917536
-0.00908811
-0.00835614
-0.007453
-0.0066742
-0.00613762
-0.0058795
-0.0057047
-0.00549633
-0.00519756
-0.00492171
-0.00486761
-0.0051494
-0.00584675
-0.00689162
-0.00814716
-0.0094924
-0.0108248
-0.0120789
-0.0132186
-0.0141548
-0.0148293
-0.0152401
-0.0153908
-0.0153599
-0.0152663
-0.0151432
-0.0148457
-0.0140656
-0.012372
-0.0093587
-0.00481367
0.0012696
0.00864231
0.0168733
0.0254305
0.0337603
0.0414571
0.0481974
0.0539263
0.0587228
0.0629313
0.0669183
0.0711364
0.0757799
0.0807847
0.0858065
0.0902154
0.0932899
0.0944736
0.0935174
0.0904629
0.0857969
0.0802046
0.0743884
0.0691164
0.064993
0.0626321
0.0625762
0.0649643
0.0692977
0.0743423
0.0782226
0.0789008
0.0747963
0.0653517
0.0513483
0.0346234
0.0175306
0.00210394
-0.0102859
-0.0191868
-0.0250034
-0.0284819
-0.0305265
-0.0319932
-0.0335935
-0.0357731
-0.0387661
-0.0424194
-0.0463674
-0.0500992
-0.0530697
-0.0550041
-0.0559976
-0.0563742
-0.0565769
-0.0569691
-0.0575439
-0.0580418
-0.0580925
-0.0573719
-0.0558751
-0.0541992
-0.0537002
-0.0564839
-0.064933
-0.0813966
-0.107103
-0.141362
-0.180582
-0.217897
-0.243658
-0.246123
-0.212884
-0.133305
-0.00124442
0.181302
0.401398
0.634021
0.844386
0.994283
1.05181
1.00131
0.84935
0.624585
0.370239
0.131911
-0.0549248
-0.173176
-0.225241
-0.228044
-0.204418
-0.174523
-0.150963
-0.138028
-0.134149
-0.135512
-0.13861
-0.141401
-0.143367
-0.144646
-0.145628
-0.146436
-0.147088
-0.147609
-0.148077
-0.148461
-0.148689
-0.148625
-0.148064
-0.147001
-0.145467
-0.143682
-0.141872
-0.140275
-0.139003
-0.137918
-0.136663
-0.134895
-0.132365
-0.128984
-0.124983
-0.120819
-0.117022
-0.113953
-0.111657
-0.110051
-0.108837
-0.107744
-0.106608
-0.105296
-0.103721
-0.101855
-0.0995795
-0.0969339
-0.0940524
-0.0911346
-0.0885737
-0.0866937
-0.0856937
-0.0855496
-0.0859961
-0.0866229
-0.0870868
-0.0871114
-0.0866841
-0.0859875
-0.0853579
-0.0852301
-0.0858754
-0.087549
-0.0901341
-0.0932065
-0.096148
-0.0983531
-0.099496
-0.0996709
-0.0993551
-0.0992583
-0.0999723
-0.101654
-0.103946
-0.106189
-0.107655
-0.107997
-0.107471
-0.106739
-0.106645
-0.107837
-0.110405
-0.113949
-0.117543
-0.12006
-0.120439
-0.117784
-0.111548
-0.101523
-0.0879029
-0.0712776
-0.0524754
-0.0326927
-0.0131562
0.00493183
0.0206552
0.0335181
0.0433958
0.0505662
0.0554634
0.0586318
0.0606669
0.0620053
0.0630719
0.0641353
0.0654388
0.0672192
0.0695451
0.0724066
0.0755282
0.0785211
0.0809663
0.0825307
0.0830208
0.0826712
0.0819307
0.0814093
0.0815338
0.0825209
0.0841418
0.0859153
0.0871422
0.0871613
0.085464
0.0818182
0.0763621
0.0696175
0.0622059
0.054991
0.0486125
0.0435161
0.0398767
0.0375118
0.0360817
0.0352243
0.0346519
0.0341996
0.033852
0.0334552
0.0329282
0.0320928
0.0308383
0.0291851
0.0272455
0.0251432
0.0229645
0.0206158
0.0178904
0.0146512
0.0109095
0.00686882
0.00290278
-0.000601678
-0.00337632
-0.00527717
-0.00627944
-0.00639394
-0.00572296
-0.00449137
-0.00307485
-0.00216575
-0.00249026
-0.00454874
-0.00846591
-0.0136597
-0.0192382
-0.0241345
-0.0274424
-0.0287668
-0.0282281
-0.0263252
-0.0237435
-0.0210511
-0.0185698
-0.0165645
-0.0151911
-0.0145615
-0.0147883
-0.0158475
-0.017402
-0.0191068
-0.0205164
-0.0213211
-0.0214145
-0.0208943
-0.0200702
-0.0193087
-0.0189621
-0.0193785
-0.0208257
-0.0234435
-0.0269939
-0.0308591
-0.0340707
-0.0355498
-0.0344447
-0.0304358
-0.0237929
-0.0153771
-0.00643674
0.00184179
0.00855251
0.0131952
0.0158878
0.0172581
0.0183057
0.020302
0.0242425
0.0306448
0.0391703
0.0486826
0.0574797
0.0639896
0.0671296
0.0668055
0.0637441
0.059121
0.0540669
0.0493753
0.0452784
0.0417124
0.0387861
0.0368215
0.0361865
0.0368123
0.0380378
0.0384886
0.0364493
0.0305482
0.0203466
0.00667244
-0.00859172
-0.0232214
-0.0352613
-0.0437481
-0.0488578
-0.0516549
-0.05349
-0.0554651
-0.05805
-0.0611761
-0.0643364
-0.0669916
-0.068881
-0.0702524
-0.0716171
-0.0734538
-0.0760168
-0.0791363
-0.082336
-0.0848286
-0.085847
-0.084796
-0.0815925
-0.0765099
-0.0703428
-0.0641554
-0.0594091
-0.0577261
-0.0607343
-0.0699003
-0.0863702
-0.11058
-0.141598
-0.17668
-0.210609
-0.235458
-0.240979
-0.215407
-0.147656
-0.030451
0.135884
0.340256
0.559465
0.76051
0.907043
0.968404
0.928797
0.793087
0.586737
0.348987
0.122216
-0.0597127
-0.179002
-0.235592
-0.243439
-0.222931
-0.193371
-0.167905
-0.152341
-0.146487
-0.147187
-0.150772
-0.154421
-0.156587
-0.156685
-0.154629
-0.150578
-0.145024
-0.138714
-0.132636
-0.127924
-0.125438
-0.125564
-0.127987
-0.131794
-0.135769
-0.138761
-0.140168
-0.140045
-0.13901
-0.137707
-0.136476
-0.135162
-0.133054
-0.129418
-0.124176
-0.117912
-0.11202
-0.107939
-0.106668
-0.108242
-0.111653
-0.115351
-0.117803
-0.118122
-0.116279
-0.113018
-0.109436
-0.106433
-0.104575
-0.103906
-0.104055
-0.104694
-0.105499
-0.106176
-0.10656
-0.106452
-0.105701
-0.104099
-0.10176
-0.09889
-0.0957848
-0.0929594
-0.0908453
-0.0898165
-0.090048
-0.0915311
-0.0941202
-0.0975342
-0.101388
-0.105308
-0.109043
-0.112464
-0.115636
-0.118823
-0.122269
-0.12626
-0.130917
-0.136155
-0.141676
-0.147108
-0.152013
-0.156095
-0.15913
-0.161004
-0.161413
-0.160077
-0.156578
-0.150568
-0.141792
-0.130314
-0.116456
-0.100808
-0.0840813
-0.0670021
-0.0501194
-0.033896
-0.0186531
-0.00469941
0.00777981
0.0187566
0.0282835
0.036678
0.0444118
0.0519761
0.0596502
0.0674106
0.0747713
0.0810941
0.0857232
0.0883992
0.0894279
0.0897251
0.0904001
0.0923764
0.095914
0.10051
0.105139
0.108541
0.109916
0.109208
0.106983
0.10424
0.10177
0.0999902
0.0985906
0.096926
0.0942953
0.0903606
0.0852391
0.0794046
0.073461
0.0678581
0.0628178
0.0582335
0.0540037
0.0501724
0.0470658
0.0451561
0.0447481
0.0458357
0.0479322
0.0501718
0.0515351
0.051369
0.0494859
0.0461497
0.0420066
0.0376631
0.033711
0.0304304
0.0280862
0.0266884
0.026195
0.0263125
0.0265897
0.0264902
0.0255057
0.023457
0.0204777
0.0170659
0.0138616
0.0115499
0.0104421
0.0106204
0.0119213
0.013993
0.0164267
0.0188382
0.0209604
0.0226074
0.0236163
0.0240156
0.0238325
0.0231147
0.0218483
0.0200593
0.0177172
0.0148316
0.0114988
0.00797621
0.00462059
0.00178881
-0.000161477
-0.00121001
-0.00155633
-0.00155536
-0.00160498
-0.00209648
-0.00314385
-0.00470502
-0.00660269
-0.00849999
-0.0100067
-0.0106314
-0.00999093
-0.00770147
-0.00350764
0.00258845
0.0102089
0.018689
0.0272514
0.0351833
0.0420226
0.0477479
0.0526364
0.0571726
0.061701
0.0663181
0.0707064
0.0743926
0.076961
0.0781514
0.0779933
0.0767873
0.0748598
0.0724293
0.069633
0.0664921
0.0632879
0.0604462
0.0586189
0.0581671
0.0589298
0.05991
0.0595754
0.0562862
0.0489153
0.0374338
0.0229377
0.00733576
-0.00723512
-0.0192927
-0.0281428
-0.0339959
-0.0375491
-0.03954
-0.0405315
-0.0408418
-0.0407099
-0.0403843
-0.0401452
-0.0403083
-0.0409853
-0.0419191
-0.0427747
-0.0429829
-0.0422261
-0.0405095
-0.0381506
-0.0355922
-0.033351
-0.0316292
-0.0304896
-0.0298936
-0.0297622
-0.0303847
-0.0325788
-0.0375389
-0.0468874
-0.0621055
-0.0840088
-0.111994
-0.143001
-0.171086
-0.187555
-0.18145
-0.140962
-0.0558338
0.0793779
0.261763
0.477392
0.700566
0.896714
1.02933
1.0693
1.00403
0.842625
0.614564
0.362201
0.129055
-0.0519057
-0.165284
-0.214114
-0.214849
-0.189219
-0.156752
-0.129921
-0.113373
-0.106263
-0.105334
-0.107177
-0.109615
-0.11184
-0.113749
-0.115461
-0.11695
-0.118103
-0.118941
-0.119581
-0.120198
-0.12079
-0.121319
-0.121475
-0.120853
-0.119216
-0.116604
-0.113332
-0.10993
-0.106873
-0.104349
-0.102268
-0.100188
-0.0976703
-0.0944235
-0.0904668
-0.0861512
-0.0819761
-0.0783692
-0.0756202
-0.0738379
-0.0729555
-0.0728125
-0.0732334
-0.0740665
-0.075066
-0.0759899
-0.0766825
-0.076938
-0.0766621
-0.0760028
-0.0750438
-0.0740278
-0.0730841
-0.0722549
-0.0715172
-0.0707382
-0.0698628
-0.0689127
-0.0679768
-0.0671545
-0.0665542
-0.0661693
-0.0658021
-0.0653671
-0.0647992
-0.0642404
-0.0640187
-0.0645592
-0.0662458
-0.0692095
-0.0734113
-0.0785694
-0.0842491
-0.0900166
-0.095604
-0.100777
-0.105549
-0.10996
-0.114212
-0.118376
-0.12245
-0.12631
-0.129592
-0.131784
-0.132188
-0.130157
-0.125106
-0.116722
-0.105095
-0.0907462
-0.0746859
-0.0581067
-0.0422147
-0.0279806
-0.0160033
-0.00642708
0.00103626
0.00701107
0.0122853
0.0176338
0.0238033
0.0313112
0.0403765
0.0509044
0.0624686
0.0743652
0.0858064
0.0960279
0.104409
0.110727
0.114981
0.117469
0.118645
0.119141
0.119431
0.119986
0.121051
0.122641
0.124608
0.126532
0.128019
0.128627
0.12804
0.126051
0.122665
0.118063
0.112627
0.106962
0.101749
0.0975128
0.0946574
0.0931339
0.0926436
0.0926378
0.0926381
0.0922409
0.0912586
0.0897144
0.0877068
0.0854031
0.0830864
0.080933
0.0792
0.0780947
0.0774585
0.0771725
0.0768801
0.0762454
0.0751007
0.0734027
0.0711346
0.0684112
0.0652729
0.0616933
0.057707
0.0534467
0.0491543
0.0451992
0.0418891
0.0394841
0.0380376
0.0373983
0.0373118
0.0374401
0.0375418
0.0373985
0.0368641
0.0359184
0.0345902
0.032983
0.0313344
0.029768
0.0284604
0.027456
0.0265966
0.0255893
0.0242016
0.0221244
0.0193138
0.0160069
0.0126566
0.00989131
0.00821942
0.00792397
0.00892153
0.0107234
0.0125546
0.0137186
0.0137503
0.012563
0.0104844
0.00810341
0.0060698
0.00494156
0.00495086
0.00598484
0.00768682
0.00964675
0.0113378
0.0123956
0.0126126
0.0120434
0.0108888
0.0096868
0.00911161
0.00992402
0.0128254
0.0180583
0.0254405
0.0342568
0.0434479
0.0519958
0.0593143
0.0653298
0.0705197
0.0755808
0.081065
0.0871326
0.0934719
0.0993379
0.103897
0.106452
0.106651
0.10452
0.100434
0.0949737
0.0887158
0.0822003
0.0758539
0.070057
0.065379
0.0624995
0.0620539
0.064472
0.0694221
0.0756446
0.081139
0.0835328
0.0809801
0.0726106
0.0589558
0.0417
0.0231504
0.00549568
-0.00976651
-0.0219225
-0.0309884
-0.0373482
-0.041535
-0.0441698
-0.045864
-0.0472936
-0.0489785
-0.0512112
-0.0539899
-0.0569507
-0.0596244
-0.0616317
-0.062789
-0.0632335
-0.0632282
-0.0630706
-0.0627954
-0.0622172
-0.0611198
-0.0592049
-0.0565431
-0.053617
-0.0513705
-0.0510666
-0.0540931
-0.0618043
-0.0751227
-0.0945368
-0.119764
-0.149774
-0.182302
-0.213368
-0.237039
-0.245735
-0.230633
-0.1826
-0.0934533
0.0420327
0.223372
0.441778
0.678239
0.903873
1.0835
1.18307
1.17901
1.06627
0.861859
0.601857
0.331881
0.0946625
-0.0806901
-0.184413
-0.224887
-0.222011
-0.198611
-0.172867
-0.154789
-0.146679
-0.14605
-0.14898
-0.152235
-0.15418
-0.154567
-0.153901
-0.152767
-0.151648
-0.150881
-0.150587
-0.150758
-0.151166
-0.151607
-0.151891
-0.151931
-0.151713
-0.151252
-0.150438
-0.14916
-0.147366
-0.14504
-0.142413
-0.139763
-0.137416
-0.135472
-0.133833
-0.132228
-0.130278
-0.127756
-0.124597
-0.121059
-0.117505
-0.114453
-0.112213
-0.110908
-0.110424
-0.110401
-0.110521
-0.110491
-0.110176
-0.109526
-0.108578
-0.107315
-0.105767
-0.103946
-0.101919
-0.0997924
-0.0977442
-0.0959776
-0.0946486
-0.0939292
-0.0938504
-0.0944004
-0.095457
-0.09676
-0.0979527
-0.0986221
-0.098524
-0.0975126
-0.0956814
-0.093321
-0.0908743
-0.0888292
-0.0876271
-0.0876443
-0.0890809
-0.0919253
-0.0959969
-0.100915
-0.106164
-0.111357
-0.116065
-0.120166
-0.123521
-0.126078
-0.127513
-0.127331
-0.124886
-0.119614
-0.111169
-0.0997471
-0.0860149
-0.0711349
-0.0564693
-0.0432345
-0.0324116
-0.0243549
-0.0188566
-0.0151428
-0.0121642
-0.00882331
-0.00431431
0.00182404
0.00958936
0.0186571
0.02857
0.0388807
0.0491416
0.0590343
0.0682466
0.0765619
0.0837307
0.0897727
0.0947676
0.0989611
0.102577
0.105828
0.108572
0.110557
0.111498
0.111217
0.10987
0.107915
0.10596
0.104552
0.103904
0.103874
0.104082
0.104067
0.103518
0.102309
0.100536
0.0983157
0.0958286
0.0931106
0.0901154
0.0867486
0.0830732
0.0790848
0.0749749
0.0710102
0.0674632
0.0644944
0.0622561
0.0606962
0.0596106
0.0587487
0.0578521
0.0567996
0.0556087
0.054294
0.0529351
0.0515621
0.0501569
0.0485574
0.0466651
0.0443939
0.04161
0.0383645
0.0346405
0.0304972
0.0260355
0.0214664
0.0169413
0.0127858
0.00921635
0.00641955
0.0044204
0.00316826
0.0024457
0.00199025
0.00153083
0.000852234
-0.000111792
-0.00133598
-0.00265686
-0.00384428
-0.00469929
-0.0050782
-0.00492964
-0.00429036
-0.00329788
-0.00210822
-0.000925928
9.47065e-5
0.000755485
0.000890847
0.000428884
-0.000713772
-0.00238639
-0.00446054
-0.00676876
-0.00913606
-0.0113736
-0.0133521
-0.0150776
-0.016523
-0.0176918
-0.0186482
-0.0193304
-0.0196768
-0.0195851
-0.0189622
-0.017736
-0.0159492
-0.0137288
-0.0112986
-0.0088454
-0.00644254
-0.00383966
-0.000656899
0.00372204
0.00971854
0.0174034
0.0263541
0.0356242
0.0440271
0.05073
0.0553478
0.0582525
0.0603174
0.0625904
0.0658219
0.0702224
0.0754782
0.0808132
0.0853246
0.0882305
0.0890353
0.0876355
0.0843629
0.0798361
0.0748541
0.0702028
0.0664212
0.0637357
0.0620989
0.061288
0.0613518
0.0624175
0.0646515
0.0677909
0.0709746
0.0727335
0.0713519
0.0654765
0.0546866
0.0398697
0.0228765
0.00604605
-0.00846496
-0.0193622
-0.0263199
-0.0298403
-0.0310006
-0.0310394
-0.0311226
-0.0322019
-0.0347796
-0.0388231
-0.0438671
-0.04915
-0.0538585
-0.0573054
-0.0592436
-0.0597329
-0.0591647
-0.0581095
-0.0570106
-0.0562752
-0.0559607
-0.0560024
-0.0561898
-0.0563523
-0.05653
-0.0573189
-0.0600619
-0.0666809
-0.0793331
-0.0997252
-0.128254
-0.163341
-0.200833
-0.234055
-0.254511
-0.253183
-0.221302
-0.151499
-0.0387394
0.117968
0.313756
0.535747
0.761948
0.962564
1.10438
1.15857
1.10915
0.959412
0.733199
0.469557
0.212574
-0.000296233
-0.14712
-0.224691
-0.245599
-0.231059
-0.202549
-0.175647
-0.157851
-0.149844
-0.148584
-0.150213
-0.152096
-0.153121
-0.153415
-0.153522
-0.153802
-0.154341
-0.155121
-0.156033
-0.156921
-0.157633
-0.158063
-0.158012
-0.157346
-0.155992
-0.153976
-0.151399
-0.148435
-0.145263
-0.142125
-0.139149
-0.136401
-0.133878
-0.131507
-0.129151
-0.126641
-0.123815
-0.1205
-0.116637
-0.112435
-0.108235
-0.104398
-0.101303
-0.0990389
-0.097491
-0.0963778
-0.0954793
-0.0945818
-0.0936847
-0.0928511
-0.0921128
-0.0914066
-0.0905991
-0.0895765
-0.0884377
-0.0872983
-0.0864112
-0.0859518
-0.0859761
-0.0863279
-0.086807
-0.0872088
-0.0874062
-0.0873465
-0.0871221
-0.0867862
-0.0863416
-0.0857822
-0.0850714
-0.0841554
-0.0830545
-0.0818564
-0.080639
-0.079619
-0.0789864
-0.0790027
-0.0799274
-0.0819716
-0.0851905
-0.0895648
-0.0947938
-0.100468
-0.106006
-0.110804
-0.114112
-0.115342
-0.113997
-0.109926
-0.103278
-0.0945933
-0.0845722
-0.0740472
-0.0636673
-0.0539403
-0.045108
-0.0373301
-0.0307072
-0.0253715
-0.0214437
-0.0188354
-0.0173646
-0.0165279
-0.0156642
-0.0141366
-0.0114005
-0.00709853
-0.00111929
0.00636354
0.015076
0.024701
0.0347985
0.0449219
0.0545
0.0630241
0.0701723
0.0758413
0.0801662
0.0835535
0.0864225
0.0890557
0.0914959
0.0935326
0.0948614
0.0952556
0.0947224
0.0935394
0.0922779
0.0914551
0.0915258
0.0925962
0.0944654
0.0966016
0.0982879
0.0987322
0.0973073
0.0936923
0.087998
0.0807221
0.0728861
0.0656443
0.0600253
0.056766
0.0560109
0.0572124
0.0593614
0.061282
0.0619468
0.0607642
0.0576589
0.0530943
0.0477584
0.0424231
0.0376688
0.0338253
0.0308133
0.0285724
0.0269642
0.0259904
0.0256205
0.0258745
0.0265641
0.0272521
0.0274114
0.0265995
0.0244773
0.0210723
0.0166689
0.011639
0.00629484
0.000776568
-0.0049158
-0.0107961
-0.0166637
-0.021897
-0.0257256
-0.027478
-0.0268225
-0.0241018
-0.0202622
-0.0165582
-0.0139936
-0.0131173
-0.0138526
-0.0156295
-0.0177874
-0.0198152
-0.0214937
-0.0228081
-0.0238117
-0.0243688
-0.0243719
-0.0237011
-0.0224555
-0.020924
-0.0195732
-0.0189115
-0.0192795
-0.020692
-0.0228579
-0.0253527
-0.0275544
-0.0289986
-0.0294705
-0.0290648
-0.0281735
-0.0272884
-0.02693
-0.0273458
-0.0285021
-0.0300042
-0.0311725
-0.0313444
-0.0299963
-0.0267811
-0.0216233
-0.0147382
-0.00648587
0.00265059
0.0121191
0.0213924
0.0300445
0.0378024
0.0445229
0.0501991
0.0549361
0.0589331
0.0623607
0.0654364
0.0683093
0.0710034
0.0733592
0.0749054
0.0752521
0.0739023
0.0709901
0.0670767
0.0630195
0.059779
0.0578008
0.056949
0.0565795
0.0558842
0.0544458
0.0524849
0.050721
0.0498474
0.0499435
0.050305
0.0494299
0.0455726
0.0375362
0.025137
0.00943466
-0.00763995
-0.0238158
-0.0372805
-0.04696
-0.0526331
-0.0549647
-0.0548073
-0.0532415
-0.0512762
-0.049738
-0.0493311
-0.050496
-0.053398
-0.0578708
-0.0632855
-0.0686538
-0.0730058
-0.0755042
-0.0757514
-0.0737924
-0.0702724
-0.0659794
-0.061627
-0.0577924
-0.054842
-0.0529912
-0.0525525
-0.0541779
-0.0588026
-0.067622
-0.0816318
-0.101485
-0.126919
-0.15646
-0.186943
-0.213423
-0.229273
-0.226512
-0.196288
-0.129918
-0.0210865
0.131407
0.320766
0.530126
0.732981
0.896784
0.990203
0.991631
0.896288
0.71917
0.492
0.254813
0.0452983
-0.110571
-0.203217
-0.238821
-0.234052
-0.208733
-0.179604
-0.15682
-0.143841
-0.139373
-0.14014
-0.142808
-0.145146
-0.146247
-0.14603
-0.144799
-0.142892
-0.140754
-0.138858
-0.137564
-0.137118
-0.137533
-0.138515
-0.139543
-0.139971
-0.139364
-0.137505
-0.134459
-0.130674
-0.126623
-0.122917
-0.119928
-0.11783
-0.116448
-0.115498
-0.114608
-0.113453
-0.111952
-0.110253
-0.108639
-0.107406
-0.106596
-0.106146
-0.105718
-0.104994
-0.10386
-0.102404
-0.100905
-0.0996702
-0.0988834
-0.0984993
-0.0983278
-0.0981613
-0.0979879
-0.0979135
-0.098227
-0.0990245
-0.100214
-0.10138
-0.102038
-0.101683
-0.10017
-0.0978042
-0.0951458
-0.0928848
-0.0915208
-0.0910967
-0.0912425
-0.0913312
-0.0908054
-0.0894959
-0.0876415
-0.0858069
-0.0845879
-0.0843361
-0.0849957
-0.0863407
-0.088091
-0.0902076
-0.092836
-0.0963184
-0.100806
-0.106135
-0.111742
-0.116881
-0.120763
-0.12283
-0.122738
-0.120328
-0.115616
-0.10871
-0.0998457
-0.0895571
-0.078656
-0.0681349
-0.058951
-0.0518509
-0.0471072
-0.0445269
-0.0434552
-0.0429041
-0.0418686
-0.0395051
-0.0352623
-0.0290721
-0.021254
-0.012356
-0.00297562
0.00655891
0.0161949
0.0261186
0.0364936
0.0472207
0.0578611
0.0677297
0.0761844
0.0827975
0.0875777
0.0909182
0.0934761
0.0959302
0.0987309
0.102062
0.105653
0.109033
0.111467
0.112343
0.111302
0.108477
0.104509
0.100285
0.0966274
0.0940381
0.0924665
0.0913341
0.0898235
0.0872819
0.0833533
0.0782781
0.0726995
0.0675465
0.0635531
0.0612256
0.0606333
0.0614468
0.0630105
0.0646119
0.0655968
0.0655315
0.0643177
0.0620411
0.0591214
0.0559612
0.0530416
0.0507057
0.0490322
0.0479051
0.0469955
0.0459309
0.0443701
0.0422213
0.0396352
0.036854
0.0342695
0.0321335
0.0304451
0.0288485
0.0268786
0.0240987
0.0203862
0.01595
0.0112844
0.00699231
0.00352333
0.00120274
-3.65982e-5
-0.000316363
0.000195723
0.00135609
0.00293354
0.00461504
0.00603164
0.00659084
0.00588353
0.00369847
0.000302367
-0.00385604
-0.00816463
-0.0119541
-0.0148603
-0.0167711
-0.0179898
-0.0189875
-0.0201674
-0.0217221
-0.0236817
-0.025702
-0.0273326
-0.0282334
-0.0282702
-0.0276752
-0.0267433
-0.0259124
-0.0254184
-0.0253112
-0.0252622
-0.0248186
-0.0236317
-0.02127
-0.0174046
-0.0118469
-0.00465292
0.00387038
0.0131539
0.0222742
0.0303926
0.0367645
0.0411541
0.0438315
0.0454993
0.0469687
0.0489819
0.0518989
0.0556813
0.0600255
0.0643667
0.0681034
0.0706025
0.0713984
0.0701767
0.0670398
0.0623099
0.0566828
0.0509511
0.046055
0.0427206
0.0414862
0.0424336
0.0450851
0.0484112
0.0509648
0.0512033
0.0478351
0.04023
0.0286393
0.0140439
-0.0019665
-0.0175656
-0.0311695
-0.0416484
-0.0486048
-0.0521832
-0.0531567
-0.0525534
-0.0515206
-0.0508798
-0.0510579
-0.0519585
-0.0531675
-0.0541065
-0.0543545
-0.0536641
-0.0521341
-0.0501524
-0.0480289
-0.0460246
-0.0441431
-0.0424347
-0.0409446
-0.0398554
-0.0395285
-0.040693
-0.0443446
-0.0518287
-0.0645324
-0.0836678
-0.10966
-0.141183
-0.174545
-0.203332
-0.218512
-0.209363
-0.164677
-0.0750947
0.0641206
0.250045
0.469436
0.698068
0.902905
1.04818
1.10402
1.05528
0.907174
0.685386
0.429773
0.183757
-0.0171462
-0.153194
-0.222744
-0.238694
-0.221414
-0.190945
-0.16176
-0.140971
-0.129692
-0.125583
-0.125447
-0.126679
-0.127969
-0.128845
-0.129236
-0.12918
-0.128663
-0.127689
-0.126358
-0.124671
-0.122639
-0.120333
-0.117648
-0.114638
-0.111344
-0.107946
-0.10479
-0.102254
-0.100681
-0.100289
-0.100913
-0.102296
-0.103886
-0.105149
-0.105634
-0.105128
-0.103582
-0.101198
-0.098257
-0.0950874
-0.0921239
-0.089728
-0.0880258
-0.0870241
-0.0864756
-0.0860988
-0.0855851
-0.0847448
-0.0836136
-0.0821148
-0.0803152
-0.0782651
-0.0759514
-0.0735087
-0.0711533
-0.0691886
-0.0680174
-0.0678506
-0.0686524
-0.0702689
-0.0723352
-0.07449
-0.0765162
-0.0782341
-0.0795781
-0.0805257
-0.0810467
-0.0810335
-0.0804648
-0.0794241
-0.0780524
-0.0766186
-0.0754872
-0.0750031
-0.0754981
-0.077291
-0.0805032
-0.0851448
-0.0910573
-0.0978611
-0.105089
-0.112164
-0.118528
-0.123665
-0.127156
-0.128708
-0.128019
-0.124985
-0.11955
-0.111851
-0.102276
-0.0914511
-0.0801396
-0.0691577
-0.0590691
-0.0500228
-0.0417929
-0.0338036
-0.0255175
-0.0165718
-0.00696152
0.00301219
0.0129178
0.0224008
0.0312792
0.0396935
0.0479437
0.0563337
0.0650465
0.074073
0.0831944
0.0921038
0.100415
0.107896
0.114447
0.120068
0.124852
0.128909
0.132312
0.135149
0.13735
0.13898
0.14001
0.140381
0.14003
0.138945
0.13715
0.134731
0.131852
0.128656
0.125304
0.121868
0.118472
0.115291
0.112492
0.110287
0.108743
0.107818
0.107341
0.107022
0.106636
0.106
0.10513
0.10415
0.103219
0.102298
0.101426
0.100347
0.0988341
0.096709
0.0938938
0.0903841
0.0864033
0.0822127
0.0780844
0.0741422
0.0704162
0.0668093
0.0630903
0.0589786
0.0544072
0.0494749
0.0446307
0.040451
0.0373828
0.0357236
0.0353169
0.0357597
0.0364389
0.0367609
0.0363877
0.0352942
0.0336984
0.0319609
0.0304427
0.0293448
0.0287197
0.0285244
0.0284818
0.0284595
0.0282106
0.027682
0.0267674
0.0253891
0.0234612
0.0209816
0.0179846
0.014736
0.0114778
0.00851689
0.00611776
0.00435313
0.00318895
0.0024067
0.00180236
0.00121955
0.000486971
-0.00030698
-0.00113767
-0.00178002
-0.0021569
-0.00216129
-0.00193689
-0.00163906
-0.00146734
-0.00164455
-0.00217701
-0.00291648
-0.00354141
-0.00362654
-0.00279558
-0.000654482
0.00305758
0.00840111
0.0152456
0.023175
0.0316617
0.0399993
0.0476556
0.0544223
0.0603871
0.0660085
0.0718173
0.0780786
0.0846808
0.0908866
0.0958208
0.0985864
0.0988625
0.0966665
0.0926258
0.0875489
0.0821233
0.0768792
0.0722127
0.0685808
0.0666878
0.0672178
0.0706756
0.0767579
0.0841927
0.0908516
0.0941659
0.0921409
0.0837187
0.0693334
0.0507518
0.0304404
0.010869
-0.00607477
-0.0194542
-0.0291449
-0.0355985
-0.0394907
-0.0415461
-0.0423965
-0.0425392
-0.0425511
-0.0428903
-0.0439583
-0.0460024
-0.048983
-0.052582
-0.0561555
-0.059006
-0.0605146
-0.060389
-0.0587963
-0.0564118
-0.0546597
-0.0554618
-0.0612428
-0.0743165
-0.0963231
-0.12739
-0.165214
-0.204279
-0.235948
-0.249131
-0.231671
-0.171921
-0.0610658
0.103952
0.317802
0.564243
0.815609
1.03536
1.18458
1.2315
1.16115
0.981677
0.724079
0.434798
0.16328
-0.0513296
-0.189144
-0.251722
-0.256955
-0.230283
-0.195269
-0.16745
-0.152837
-0.150185
-0.154806
-0.161857
-0.167936
-0.171666
-0.172968
-0.172277
-0.170209
-0.167295
-0.164089
-0.161113
-0.158701
-0.157061
-0.156162
-0.155876
-0.155979
-0.156197
-0.156338
-0.156275
-0.155942
-0.155285
-0.154369
-0.153235
-0.151944
-0.150435
-0.148687
-0.146696
-0.144512
-0.142153
-0.13976
-0.13732
-0.134752
-0.131953
-0.12873
-0.125035
-0.121037
-0.117066
-0.113713
-0.111518
-0.110689
-0.111124
-0.112347
-0.113667
-0.114476
-0.114391
-0.113441
-0.11196
-0.110355
-0.108892
-0.107681
-0.106605
-0.105517
-0.104313
-0.102978
-0.101613
-0.100336
-0.0992217
-0.0982676
-0.0974277
-0.0966574
-0.0959533
-0.0953395
-0.0949369
-0.0947594
-0.0947279
-0.0949659
-0.0956097
-0.0968661
-0.0990436
-0.102352
-0.106784
-0.112032
-0.117532
-0.12263
-0.126647
-0.129006
-0.129353
-0.127292
-0.122532
-0.114792
-0.103979
-0.0902244
-0.0740876
-0.0564015
-0.0381386
-0.0202028
-0.00320185
0.0126203
0.0273454
0.0411993
0.0542395
0.0664414
0.0775087
0.0870351
0.0947006
0.100392
0.104246
0.106572
0.107785
0.108358
0.108584
0.10863
0.108693
0.108797
0.109042
0.109441
0.109954
0.110397
0.110576
0.11018
0.108981
0.106897
0.104057
0.100641
0.0969943
0.093398
0.0901029
0.0872262
0.0848891
0.0830185
0.0815251
0.0801905
0.0787099
0.0769019
0.0746401
0.0718727
0.0687214
0.0654465
0.0622314
0.0593254
0.0568517
0.0548285
0.0530518
0.0513345
0.049314
0.0468148
0.0438018
0.0404547
0.0370647
0.0339655
0.0312645
0.0289056
0.0265681
0.0239385
0.0207649
0.016982
0.0127018
0.00824081
0.00402303
0.000358566
-0.00243602
-0.00422918
-0.0050565
-0.00515198
-0.00475864
-0.00413969
-0.00354641
-0.00304861
-0.0026247
-0.0021939
-0.0016558
-0.00106075
-0.000555859
-0.000346175
-0.000671214
-0.00155763
-0.00294741
-0.00456753
-0.00609834
-0.00730639
-0.00814491
-0.00867101
-0.00905754
-0.00952913
-0.0101585
-0.0107972
-0.0113294
-0.0115175
-0.0113181
-0.0108018
-0.0102158
-0.00985944
-0.00982588
-0.0101109
-0.0104722
-0.0106411
-0.0104894
-0.0101917
-0.0101219
-0.0106582
-0.0118139
-0.0131863
-0.0137304
-0.01231
-0.00797481
-0.000500468
0.0096037
0.0211231
0.0326154
0.0429889
0.051723
0.0589443
0.065292
0.0713475
0.077362
0.0830906
0.087857
0.0908982
0.0915569
0.0896972
0.0857689
0.0806243
0.075275
0.0706832
0.0673174
0.0651867
0.0639114
0.0631393
0.0627155
0.0627552
0.0635289
0.0650216
0.0665733
0.0669408
0.0645814
0.0582049
0.0474307
0.0329868
0.0165443
9.7566e-5
-0.0145921
-0.026407
-0.0349894
-0.0405767
-0.0435862
-0.0445885
-0.0441512
-0.0429502
-0.0417052
-0.0411765
-0.0419748
-0.0444364
-0.0484327
-0.0535021
-0.0589553
-0.0640853
-0.0683169
-0.0711939
-0.0725282
-0.0723731
-0.0711074
-0.0697642
-0.0699967
-0.0742185
-0.0850259
-0.104573
-0.133609
-0.170432
-0.210015
-0.243932
-0.261124
-0.248955
-0.19508
-0.0901073
0.0690174
0.275587
0.510968
0.744918
0.939601
1.05777
1.07283
0.977651
0.7883
0.540838
0.281578
0.0541491
-0.111973
-0.207024
-0.239896
-0.230952
-0.203328
-0.175105
-0.15591
-0.147477
-0.146912
-0.15008
-0.153813
-0.156507
-0.157849
-0.158069
-0.157408
-0.155974
-0.153963
-0.151762
-0.149808
-0.148469
-0.147905
-0.148015
-0.148431
-0.148775
-0.148726
-0.148078
-0.146733
-0.144651
-0.141834
-0.138361
-0.134257
-0.129778
-0.125191
-0.120865
-0.117088
-0.114072
-0.111767
-0.110027
-0.108512
-0.106932
-0.105048
-0.102871
-0.100509
-0.0981883
-0.0961957
-0.0948512
-0.0942382
-0.0942765
-0.0948219
-0.0955077
-0.0959827
-0.0959429
-0.0952126
-0.0938235
-0.0919694
-0.090023
-0.0883346
-0.0871869
-0.0866894
-0.086665
-0.0867719
-0.0865524
-0.0856879
-0.0839664
-0.0814978
-0.0786241
-0.0758965
-0.073731
-0.0724651
-0.0721721
-0.0726927
-0.0736677
-0.0748982
-0.0763937
-0.0782657
-0.0809192
-0.0846722
-0.0896901
-0.0958311
-0.102627
-0.10947
-0.115688
-0.120734
-0.124212
-0.125813
-0.125262
-0.122262
-0.116494
-0.10774
-0.0960802
-0.0820365
-0.0666198
-0.0511139
-0.0369201
-0.0250412
-0.0159223
-0.00930341
-0.00434707
9.42741e-5
0.00521751
0.0118008
0.0200919
0.0298492
0.0403957
0.0509497
0.0607856
0.0694209
0.0766342
0.0824198
0.086871
0.0901791
0.0925417
0.0942317
0.095577
0.0968015
0.0980715
0.099288
0.100216
0.100497
0.0998106
0.0980422
0.0953547
0.0920949
0.0886736
0.0855014
0.0827549
0.0803994
0.0782985
0.0761409
0.0737124
0.0709882
0.0680061
0.0650219
0.0623273
0.0600956
0.0585713
0.0577808
0.0577062
0.0582509
0.0590611
0.0597872
0.0601529
0.059923
0.058989
0.057393
0.0553886
0.053163
0.0508325
0.0484756
0.0460465
0.0435624
0.0411382
0.0388772
0.0368335
0.035031
0.033283
0.0312475
0.0287333
0.0255678
0.0218098
0.0177995
0.0139355
0.0106356
0.00817048
0.00660472
0.00585863
0.00586976
0.00642816
0.00740181
0.00863927
0.00996482
0.0110822
0.0117251
0.0116786
0.0107819
0.00925439
0.00734927
0.00541714
0.00382397
0.0027019
0.00181065
0.000801662
-0.000739816
-0.00310526
-0.00619103
-0.00951536
-0.0124408
-0.0144131
-0.0151332
-0.0147746
-0.0138535
-0.0128258
-0.0120763
-0.0116301
-0.0111726
-0.0103219
-0.00887107
-0.00694707
-0.00505217
-0.00377893
-0.00353462
-0.00439579
-0.00583691
-0.00704701
-0.0071528
-0.00546393
-0.00163172
0.00415675
0.0113895
0.0192617
0.0268767
0.033385
0.0382278
0.0413373
0.0431715
0.0446967
0.0471516
0.0514646
0.0580041
0.0663347
0.0752774
0.0833454
0.0891617
0.0918826
0.0915049
0.0885832
0.0841992
0.0794652
0.0753143
0.072438
0.0712709
0.0718606
0.0737939
0.0761718
0.0775824
0.076347
0.0709188
0.060372
0.0447394
0.0251325
0.00349081
-0.0176583
-0.0360228
-0.0499737
-0.0587493
-0.0625721
-0.0625161
-0.0600755
-0.0568449
-0.0541252
-0.0526985
-0.0526445
-0.0536556
-0.0550875
-0.056257
-0.056801
-0.0566626
-0.056039
-0.0553271
-0.0548571
-0.0547556
-0.0548718
-0.0548592
-0.0544527
-0.0537795
-0.0536513
-0.0556492
-0.0620096
-0.0749434
-0.0960838
-0.125949
-0.163156
-0.203875
-0.241745
-0.267881
-0.271249
-0.23977
-0.162525
-0.03306
0.146582
0.362671
0.588958
0.789741
0.927274
0.97176
0.910697
0.753961
0.53212
0.288097
0.0649422
-0.105588
-0.209962
-0.252858
-0.251549
-0.227716
-0.199631
-0.178025
-0.165871
-0.161021
-0.159645
-0.158677
-0.156791
-0.154282
-0.152145
-0.151165
-0.151556
-0.152974
-0.154693
-0.155904
-0.156087
-0.154987
-0.152665
-0.149491
-0.145814
-0.14213
-0.138784
-0.136081
-0.134223
-0.133331
-0.133317
-0.133708
-0.133848
-0.132993
-0.130716
-0.12713
-0.122802
-0.118718
-0.115777
-0.114466
-0.114677
-0.115962
-0.117627
-0.119072
-0.119975
-0.120149
-0.11953
-0.118098
-0.115886
-0.112887
-0.109447
-0.105812
-0.102355
-0.0992983
-0.0967765
-0.0947262
-0.0930246
-0.0915485
-0.0902563
-0.0892151
-0.0884447
-0.0880407
-0.0881871
-0.0888517
-0.0900335
-0.0915621
-0.0933403
-0.0951422
-0.0968503
-0.0983711
-0.0996261
-0.10065
-0.101482
-0.102256
-0.103046
-0.104073
-0.10542
-0.107355
-0.109979
-0.113502
-0.118061
-0.1236
-0.129772
-0.13602
-0.14156
-0.145433
-0.14684
-0.14518
-0.140166
-0.131993
-0.121227
-0.108774
-0.0956539
-0.0828858
-0.0712118
-0.0611045
-0.05246
-0.0448365
-0.0376034
-0.030163
-0.0221879
-0.0135651
-0.00449986
0.00488303
0.0143102
0.0236095
0.0327015
0.0414228
0.049402
0.0561929
0.0613909
0.0647557
0.0663329
0.0665113
0.0658192
0.064851
0.0640079
0.0634733
0.0631703
0.062774
0.0620006
0.0607037
0.0588982
0.056814
0.0547405
0.0530376
0.0519644
0.0515256
0.0516372
0.0520001
0.0522804
0.0521003
0.0512626
0.049683
0.0474873
0.0449926
0.0425605
0.0403622
0.0383888
0.0365005
0.0345757
0.0325623
0.0306264
0.0289357
0.0276181
0.0265845
0.0253165
0.0232215
0.0198106
0.0149992
0.00933173
0.0036894
-0.0009942
-0.00398675
-0.00496516
-0.00421316
-0.00220741
0.000468328
0.00330224
0.00584126
0.00770469
0.00853283
0.00793122
0.00579779
0.00245802
-0.00137959
-0.00475976
-0.0068638
-0.00734442
-0.00633607
-0.00446247
-0.00250299
-0.00104948
-0.000473424
-0.000774681
-0.00189648
-0.00380918
-0.00645049
-0.00976609
-0.0135627
-0.0175164
-0.0211094
-0.0238922
-0.0254669
-0.02585
-0.0252723
-0.0241699
-0.0230671
-0.0223868
-0.0223687
-0.0230888
-0.0244505
-0.0263151
-0.028535
-0.0308381
-0.0327575
-0.0336329
-0.0325641
-0.0286747
-0.0216219
-0.0118892
-0.000701374
0.0101784
0.0189801
0.0247346
0.0275879
0.0288155
0.0303636
0.0340229
0.0406487
0.0499438
0.0604917
0.0703385
0.0776681
0.081413
0.0814
0.0783454
0.0733739
0.0675883
0.0618295
0.0566035
0.0521476
0.0487853
0.0468207
0.0465165
0.0479411
0.0505852
0.0532118
0.0541641
0.0518112
0.0450174
0.0337031
0.0188722
0.00234051
-0.0137192
-0.0274511
-0.0377398
-0.0443135
-0.0475924
-0.0485024
-0.0480043
-0.0468619
-0.045595
-0.0443743
-0.0432057
-0.0421569
-0.0414081
-0.0413786
-0.0425456
-0.0451684
-0.0492795
-0.0544613
-0.0599505
-0.0647952
-0.0682428
-0.0699162
-0.0698445
-0.0683937
-0.0660949
-0.0633968
-0.060598
-0.057949
-0.0560901
-0.0562969
-0.0605906
-0.0713438
-0.0905474
-0.118724
-0.153572
-0.189479
-0.217571
-0.226483
-0.203968
-0.138789
-0.0237493
0.141474
0.347681
0.574658
0.792284
0.965068
1.05984
1.0549
0.946978
0.753718
0.510072
0.259055
0.0403129
-0.119645
-0.212154
-0.245096
-0.237
-0.20903
-0.178529
-0.15555
-0.143121
-0.139545
-0.141156
-0.144521
-0.147326
-0.148853
-0.149017
-0.148191
-0.146718
-0.144804
-0.142546
-0.139926
-0.136842
-0.133391
-0.129761
-0.126158
-0.122913
-0.120217
-0.118148
-0.116638
-0.115544
-0.11471
-0.1139
-0.112924
-0.111614
-0.109745
-0.107277
-0.104259
-0.101043
-0.0981522
-0.0962268
-0.0955818
-0.0963205
-0.0980151
-0.0999204
-0.101258
-0.101455
-0.100382
-0.0984347
-0.0962515
-0.0944497
-0.0935304
-0.0934667
-0.0939875
-0.0945261
-0.0945794
-0.0936878
-0.0916096
-0.0883615
-0.0842129
-0.0796019
-0.0750875
-0.0712375
-0.068569
-0.0672956
-0.0673346
-0.0683538
-0.069876
-0.0713959
-0.0726264
-0.0735287
-0.0742964
-0.075223
-0.0765723
-0.0783448
-0.0804457
-0.0827235
-0.0849896
-0.0872712
-0.0896164
-0.0922916
-0.0953719
-0.0989006
-0.102705
-0.106531
-0.109989
-0.11272
-0.114512
-0.115061
-0.113979
-0.110924
-0.105418
-0.097067
-0.0857276
-0.0716105
-0.0553277
-0.0378585
-0.0202865
-0.00359392
0.0114895
0.024641
0.035878
0.0455052
0.0539867
0.061676
0.0688206
0.0755808
0.082019
0.0882658
0.0945031
0.101122
0.108336
0.116266
0.124796
0.133418
0.141438
0.14817
0.15303
0.155817
0.156669
0.155962
0.154222
0.152031
0.149854
0.148
0.146589
0.145486
0.14452
0.143406
0.141747
0.139362
0.13621
0.132522
0.128728
0.125422
0.123072
0.121823
0.121639
0.122059
0.12255
0.122592
0.121706
0.119696
0.116618
0.112749
0.108521
0.104432
0.100885
0.0980645
0.0959334
0.0942087
0.0926988
0.091266
0.0899158
0.0887935
0.0880264
0.0876199
0.087426
0.0872258
0.0867678
0.0858785
0.0844776
0.0824983
0.0798409
0.0765869
0.0728546
0.0689546
0.0653473
0.062355
0.0602615
0.0589561
0.0582261
0.057736
0.0572554
0.0567374
0.0562913
0.0560638
0.0558285
0.0553177
0.0540031
0.0515206
0.047845
0.0433515
0.0386905
0.0346145
0.0317415
0.030246
0.0299198
0.0302389
0.0305703
0.0304257
0.0295204
0.0278506
0.0257054
0.0234855
0.0215333
0.0200856
0.0190643
0.0182164
0.0172254
0.0158721
0.0141208
0.0121724
0.0105014
0.00969107
0.0104185
0.0131657
0.0182176
0.0254788
0.0344864
0.0443693
0.0541367
0.0629339
0.0702671
0.0761778
0.081203
0.0860189
0.0911996
0.0969046
0.102637
0.107536
0.110554
0.110888
0.108334
0.103353
0.0968503
0.0899996
0.083824
0.0790028
0.0759241
0.0747394
0.0754472
0.0780625
0.0822991
0.0874234
0.0921002
0.0947445
0.0938264
0.0884377
0.0786608
0.0655994
0.0509436
0.0364516
0.023385
0.012315
0.0031587
-0.00448165
-0.0109332
-0.0163494
-0.0207625
-0.0242418
-0.0269558
-0.0291955
-0.0312983
-0.0334401
-0.0356451
-0.0378408
-0.0397704
-0.0412922
-0.0422843
-0.0427688
-0.0428083
-0.0425523
-0.042079
-0.041383
-0.0404803
-0.0394514
-0.038461
-0.0381372
-0.0395059
-0.0441833
-0.0541
-0.0709693
-0.0958275
-0.128238
-0.165778
-0.203381
-0.233452
-0.246582
-0.232637
-0.181963
-0.0868332
0.0566156
0.246127
0.471221
0.711751
0.938426
1.11643
1.21252
1.20401
1.08654
0.877692
0.613776
0.34051
0.100919
-0.0758087
-0.179943
-0.220166
-0.216936
-0.193626
-0.168828
-0.152495
-0.146647
-0.148262
-0.152996
-0.15736
-0.159728
-0.160002
-0.158839
-0.156867
-0.154447
-0.151862
-0.14942
-0.147395
-0.145955
-0.145292
-0.145392
-0.146069
-0.147124
-0.148228
-0.149142
-0.149591
-0.149355
-0.1483
-0.146402
-0.143687
-0.140334
-0.136629
-0.13291
-0.12962
-0.12707
-0.125397
-0.12442
-0.123872
-0.123306
-0.122404
-0.121101
-0.11953
-0.117965
-0.116649
-0.115738
-0.11511
-0.114543
-0.113886
-0.112962
-0.111836
-0.110502
-0.109053
-0.107514
-0.105892
-0.104245
-0.102648
-0.101152
-0.099842
-0.098658
-0.0974699
-0.0961931
-0.0948617
-0.0937407
-0.0931906
-0.0935433
-0.0948536
-0.0968829
-0.0990998
-0.100811
-0.101564
-0.10124
-0.100117
-0.0988298
-0.0980941
-0.0986188
-0.10073
-0.104432
-0.109309
-0.114753
-0.12002
-0.124326
-0.127068
-0.127746
-0.12598
-0.121509
-0.114244
-0.104148
-0.0914414
-0.076678
-0.0607303
-0.0448936
-0.0306367
-0.019265
-0.0115722
-0.00762141
-0.00654506
-0.00682553
-0.00676227
-0.00486976
-0.000235896
0.00720212
0.0169523
0.0280677
0.0395119
0.0503777
0.0600714
0.0683778
0.0754285
0.0816217
0.0873777
0.0929549
0.0984048
0.10347
0.107734
0.110882
0.112742
0.113459
0.113274
0.112438
0.111153
0.109478
0.107456
0.10525
0.103124
0.101475
0.100509
0.100352
0.100666
0.100988
0.100831
0.0999393
0.0984547
0.0967369
0.0954272
0.0948354
0.0950334
0.0957838
0.0965914
0.0969106
0.0964181
0.094897
0.0923459
0.0888612
0.0845645
0.0796678
0.0743991
0.0691076
0.0641116
0.0596142
0.0557489
0.0524595
0.0495576
0.0468579
0.044208
0.0415566
0.0389907
0.0365746
0.034339
0.0322836
0.0302462
0.0282219
0.026161
0.0241528
0.0223333
0.020829
0.0196228
0.0187223
0.0180497
0.0175327
0.0172545
0.0172657
0.0176832
0.0184396
0.0193668
0.0201612
0.0204379
0.0198575
0.0182591
0.0155788
0.0120335
0.00799662
0.00388084
0.000166289
-0.00269714
-0.00451911
-0.00523257
-0.00507853
-0.00436974
-0.00357069
-0.00303228
-0.0029717
-0.00335916
-0.00406899
-0.00485833
-0.0054785
-0.00582926
-0.00583918
-0.0055264
-0.00491507
-0.00408041
-0.00297377
-0.00157051
0.000210871
0.00253555
0.0055606
0.00946106
0.0144533
0.0205254
0.0275747
0.0351964
0.042867
0.0498669
0.0557477
0.0602725
0.06371
0.0666923
0.0699541
0.0740183
0.0789651
0.0842513
0.0888729
0.0917904
0.0922602
0.0901234
0.0859089
0.0806921
0.0756182
0.0715557
0.0688069
0.0670253
0.0656636
0.0643247
0.0628931
0.0619962
0.0622858
0.0640435
0.0667624
0.0691227
0.0690933
0.0649736
0.0558284
0.0419074
0.0246588
0.006175
-0.0113661
-0.0262978
-0.0376962
-0.0454047
-0.0498763
-0.0519364
-0.0525646
-0.0526707
-0.052928
-0.0536054
-0.0546449
-0.0556064
-0.0560139
-0.0555691
-0.0542019
-0.0522996
-0.0504462
-0.0492282
-0.0490348
-0.049842
-0.0512146
-0.0526805
-0.0538533
-0.0547851
-0.0561866
-0.0594111
-0.0663995
-0.0791719
-0.0992696
-0.127086
-0.161003
-0.196841
-0.228095
-0.247129
-0.247109
-0.223814
-0.176686
-0.10863
-0.0240924
0.0735135
0.184025
0.310565
0.457095
0.624215
0.804483
0.979851
1.123
1.20338
1.19611
1.09102
0.89789
0.645598
0.374957
0.127656
-0.0647937
-0.187917
-0.245165
-0.253273
-0.234292
-0.207923
-0.186728
-0.175379
-0.172731
-0.175086
-0.178993
-0.182346
-0.184525
-0.185737
-0.186101
-0.185625
-0.18408
-0.181403
-0.177781
-0.173673
-0.169668
-0.166275
-0.163819
-0.16227
-0.161354
-0.160679
-0.159869
-0.158711
-0.157249
-0.155584
-0.153949
-0.152518
-0.15135
-0.150304
-0.149225
-0.148003
-0.146507
-0.144624
-0.142375
-0.139755
-0.136873
-0.133858
-0.130892
-0.128204
-0.125994
-0.124409
-0.123539
-0.123346
-0.123606
-0.124009
-0.124121
-0.123524
-0.121987
-0.119583
-0.116683
-0.113986
-0.112199
-0.111802
-0.112939
-0.115278
-0.118223
-0.12109
-0.123363
-0.124769
-0.125277
-0.124975
-0.123975
-0.122361
-0.120221
-0.117809
-0.115514
-0.113847
-0.113327
-0.114247
-0.116592
-0.119993
-0.123844
-0.127559
-0.130662
-0.132907
-0.134243
-0.134766
-0.134431
-0.133208
-0.130764
-0.126728
-0.120684
-0.112363
-0.101726
-0.0891215
-0.0751322
-0.0605318
-0.046113
-0.0325801
-0.0204531
-0.00999428
-0.00119399
0.00610405
0.0121862
0.0174325
0.0222631
0.0271459
0.0324127
0.0383271
0.0449415
0.0521756
0.0597696
0.0675248
0.0751267
0.0824316
0.0892722
0.0954712
0.100806
0.104884
0.107377
0.108108
0.107145
0.1048
0.101555
0.0979834
0.0945292
0.0914433
0.0887121
0.0861737
0.0836652
0.0811732
0.0788275
0.0768489
0.0754659
0.0747678
0.0746106
0.0746045
0.0743478
0.0734671
0.0717944
0.069416
0.0665953
0.0636758
0.0609578
0.0587562
0.0571664
0.056093
0.0552403
0.0542491
0.0526999
0.0503864
0.0473131
0.0437701
0.0401995
0.0369834
0.0343706
0.0322776
0.0304666
0.0285706
0.026261
0.0233464
0.0198358
0.0159951
0.0121836
0.00882835
0.00636777
0.00507316
0.00504593
0.00619129
0.00827606
0.0108931
0.0135808
0.0158554
0.0172255
0.0173125
0.0159443
0.0131511
0.00923291
0.00472826
0.000205312
-0.00376137
-0.00675634
-0.00849246
-0.00897212
-0.00836156
-0.00697898
-0.00530585
-0.0038612
-0.0032045
-0.00359937
-0.00512491
-0.00748338
-0.0101736
-0.0126242
-0.0142642
-0.0147867
-0.0141715
-0.012642
-0.01058
-0.00835957
-0.00633039
-0.00461703
-0.00323595
-0.00199679
-0.000775411
0.00061496
0.00220739
0.00409969
0.00642856
0.00945389
0.0135127
0.0188419
0.0253907
0.0326961
0.0401101
0.0469044
0.0527789
0.0578551
0.0626822
0.0679914
0.0740978
0.0807239
0.0871271
0.0922981
0.0953115
0.0958974
0.0942656
0.0911014
0.0872488
0.0833002
0.0797013
0.0765871
0.0741344
0.0726241
0.0722946
0.0731034
0.0744343
0.0750483
0.0733401
0.0679003
0.0579147
0.0436426
0.0262001
0.00742015
-0.0107681
-0.0268392
-0.0398308
-0.0493983
-0.055685
-0.0591359
-0.0602107
-0.0596451
-0.058028
-0.0559673
-0.0539585
-0.052284
-0.0511535
-0.0506568
-0.0506571
-0.0509977
-0.0513734
-0.0514894
-0.0511352
-0.0502836
-0.0490349
-0.0476898
-0.0465777
-0.0460202
-0.0460727
-0.0466649
-0.0476476
-0.0489778
-0.0507805
-0.0534832
-0.0579441
-0.0653196
-0.0770454
-0.0943979
-0.118269
-0.148573
-0.183615
-0.219571
-0.25023
-0.267544
-0.262345
-0.225178
-0.148041
-0.0262512
0.139245
0.339637
0.556638
0.763237
0.927302
1.01831
1.01536
0.914307
0.73056
0.496401
0.25247
0.0372246
-0.122733
-0.217644
-0.253905
-0.248792
-0.222943
-0.193715
-0.171607
-0.16001
-0.157561
-0.160603
-0.16542
-0.169558
-0.171785
-0.171704
-0.169482
-0.165633
-0.160819
-0.155778
-0.151221
-0.147793
-0.145737
-0.145023
-0.145244
-0.145884
-0.14628
-0.146102
-0.145085
-0.143296
-0.140956
-0.138358
-0.135733
-0.133283
-0.131009
-0.128955
-0.126959
-0.124887
-0.122635
-0.120061
-0.117208
-0.114188
-0.11132
-0.108926
-0.107264
-0.106509
-0.106618
-0.107378
-0.108419
-0.109367
-0.109871
-0.10977
-0.109197
-0.108378
-0.107861
-0.10808
-0.109341
-0.11156
-0.114383
-0.117131
-0.119114
-0.119813
-0.11898
-0.116794
-0.113665
-0.110229
-0.107145
-0.105041
-0.104196
-0.104647
-0.106166
-0.108235
-0.110375
-0.112106
-0.113251
-0.113825
-0.114143
-0.114502
-0.115168
-0.116245
-0.117517
-0.118689
-0.1194
-0.119514
-0.118979
-0.118005
-0.116873
-0.115698
-0.1145
-0.112894
-0.110379
-0.106446
-0.100749
-0.0933534
-0.0847655
-0.0757122
-0.0669735
-0.0591066
-0.0521672
-0.0458074
-0.0393296
-0.031964
-0.0231553
-0.0128003
-0.00114081
0.0113075
0.023848
0.0357683
0.0464584
0.0555136
0.0625879
0.0675788
0.0705203
0.0717523
0.0718284
0.0714844
0.071399
0.0718806
0.0728523
0.0737605
0.0738133
0.0723254
0.0691382
0.0646701
0.0598621
0.0559536
0.0538443
0.0537757
0.0552817
0.0574653
0.0592974
0.0601814
0.060081
0.0595402
0.0592603
0.0596527
0.0606398
0.0615832
0.0616183
0.0600947
0.0569879
0.0527904
0.0482895
0.0442775
0.0409588
0.0381318
0.0353141
0.032032
0.0281429
0.0237973
0.0194218
0.0153463
0.011809
0.00886967
0.00662861
0.00519312
0.00475423
0.00533467
0.00675273
0.00848106
0.00972436
0.00994634
0.00879246
0.00637573
0.00327661
7.95089e-5
-0.00281368
-0.00531295
-0.00763201
-0.0100961
-0.012748
-0.0153253
-0.0173189
-0.0181447
-0.017568
-0.0157517
-0.0134046
-0.0114552
-0.0107566
-0.0117064
-0.0141833
-0.0176339
-0.0212685
-0.0243518
-0.0265242
-0.0277529
-0.0281887
-0.0282602
-0.0282042
-0.0281329
-0.0280944
-0.0278824
-0.0273446
-0.0264303
-0.025146
-0.0236747
-0.022176
-0.0207913
-0.0193497
-0.017484
-0.0145155
-0.00997432
-0.00372472
0.00383653
0.0117383
0.018811
0.0240828
0.0272428
0.028787
0.0298603
0.0318434
0.03583
0.0421665
0.0502853
0.0588962
0.0664838
0.0717458
0.0739536
0.0731764
0.0700794
0.0656035
0.0607264
0.0561327
0.0523111
0.0495779
0.048231
0.0481912
0.0491168
0.0501451
0.0498941
0.0469004
0.0400071
0.0287713
0.0137486
-0.00356143
-0.021271
-0.0373862
-0.0504641
-0.0598073
-0.0653989
-0.0677171
-0.067483
-0.0653546
-0.0618861
-0.0575749
-0.0528739
-0.048426
-0.0449355
-0.0430671
-0.0430949
-0.0449488
-0.0479497
-0.0511432
-0.0535786
-0.0548498
-0.0552524
-0.0557326
-0.0575362
-0.0616189
-0.0684154
-0.0777469
-0.0891299
-0.10266
-0.119171
-0.139953
-0.165677
-0.195237
-0.224919
-0.248614
-0.258954
-0.248978
-0.213208
-0.147585
-0.0492964
0.0830879
0.248283
0.439807
0.642829
0.833328
0.98069
1.05478
1.03507
0.918467
0.722282
0.480595
0.23516
0.0238026
-0.128946
-0.216061
-0.246266
-0.237795
-0.210779
-0.181229
-0.158379
-0.145047
-0.139957
-0.140175
-0.142705
-0.145587
-0.147773
-0.148827
-0.148666
-0.147426
-0.14542
-0.143014
-0.140553
-0.138196
-0.136005
-0.133954
-0.132022
-0.130222
-0.128639
-0.127354
-0.126486
-0.126009
-0.12578
-0.125703
-0.125678
-0.125716
-0.12574
-0.125658
-0.12526
-0.124081
-0.121801
-0.11815
-0.113201
-0.107328
-0.101235
-0.0957315
-0.0915783
-0.0892004
-0.0887116
-0.0898987
-0.092249
-0.095111
-0.0977679
-0.0995872
-0.100093
-0.0990339
-0.0964032
-0.0925289
-0.0880744
-0.0838641
-0.0807365
-0.079259
-0.0795862
-0.0812285
-0.0832608
-0.0847879
-0.0851118
-0.0840391
-0.081982
-0.0796842
-0.0779084
-0.0772177
-0.0776531
-0.0789363
-0.0805459
-0.0820797
-0.0834421
-0.0849299
-0.0870905
-0.0905731
-0.095841
-0.103
-0.111608
-0.120951
-0.130054
-0.137949
-0.143958
-0.147734
-0.149186
-0.148372
-0.145429
-0.140278
-0.13282
-0.123023
-0.111122
-0.0977224
-0.0838206
-0.0704343
-0.0584269
-0.0481533
-0.0393478
-0.0312239
-0.0227459
-0.0129894
-0.00155372
0.0114927
0.0255183
0.0397093
0.053243
0.0656375
0.0766374
0.086358
0.0948782
0.102308
0.108567
0.113504
0.117119
0.119507
0.121148
0.12249
0.123959
0.12575
0.127792
0.129739
0.131206
0.131938
0.131926
0.131394
0.130697
0.130071
0.129619
0.129161
0.128457
0.127336
0.125713
0.123785
0.121845
0.120046
0.118487
0.116886
0.114914
0.112225
0.108678
0.104482
0.100009
0.0958552
0.0925004
0.0901079
0.0887035
0.088017
0.0876877
0.0874819
0.0872328
0.0868815
0.0863838
0.0856213
0.0845039
0.0828414
0.0804843
0.0773752
0.0735806
0.0692782
0.0647892
0.06058
0.0570002
0.0543707
0.0527015
0.0518458
0.0514229
0.0510993
0.0505613
0.0496539
0.0484456
0.0471744
0.046023
0.0451873
0.044895
0.0451831
0.0460818
0.0474787
0.0491252
0.0507683
0.0519844
0.0525847
0.0524495
0.0515333
0.0499899
0.047947
0.0456551
0.0431956
0.0406995
0.038193
0.0357426
0.0334393
0.0314004
0.0298085
0.0289688
0.0292555
0.0309679
0.0342538
0.0389174
0.0445236
0.0503359
0.055796
0.0604035
0.0642011
0.0675641
0.0710634
0.0753978
0.0808922
0.0875016
0.0947369
0.101707
0.107354
0.110622
0.110824
0.107687
0.101614
0.093519
0.08473
0.0767086
0.0707531
0.0678299
0.0682234
0.0714041
0.0759423
0.0798096
0.0806825
0.0767718
0.0670618
0.052146
0.0336837
0.0141446
-0.0038354
-0.0183034
-0.0282844
-0.0338283
-0.0357608
-0.03522
-0.0333345
-0.0309798
-0.0288025
-0.0271701
-0.026353
-0.0264429
-0.0275173
-0.0295086
-0.0321547
-0.0351209
-0.038009
-0.0404383
-0.0420131
-0.0425147
-0.0417819
-0.039986
-0.0373955
-0.0346865
-0.0328945
-0.0336733
-0.0389481
-0.0507041
-0.0702698
-0.0978047
-0.131496
-0.166936
-0.19694
-0.212076
-0.201416
-0.153479
-0.0582546
0.0898884
0.288642
0.524706
0.772122
0.994287
1.15061
1.20687
1.14591
0.974754
0.724521
0.442509
0.17883
-0.0274728
-0.157666
-0.214711
-0.217922
-0.192956
-0.162568
-0.140724
-0.131606
-0.132791
-0.139314
-0.146831
-0.152728
-0.156358
-0.158044
-0.158293
-0.157366
-0.155444
-0.152842
-0.149983
-0.147289
-0.145049
-0.143323
-0.141951
-0.140698
-0.139338
-0.137775
-0.136065
-0.134375
-0.132944
-0.132006
-0.131679
-0.131971
-0.132648
-0.133395
-0.133733
-0.133311
-0.131767
-0.129046
-0.125252
-0.120751
-0.116073
-0.111727
-0.108219
-0.105846
-0.104692
-0.104651
-0.105426
-0.106665
-0.107954
-0.108922
-0.109251
-0.108852
-0.107757
-0.106151
-0.104488
-0.103094
-0.102332
-0.10242
-0.103446
-0.105226
-0.107539
-0.109987
-0.112238
-0.114013
-0.115158
-0.115659
-0.11566
-0.115334
-0.114853
-0.114297
-0.113745
-0.11335
-0.113242
-0.113514
-0.11428
-0.115469
-0.116984
-0.118585
-0.120192
-0.121829
-0.123461
-0.125174
-0.126917
-0.128395
-0.129028
-0.128147
-0.125064
-0.119192
-0.11022
-0.0982074
-0.08356
-0.0670141
-0.0493997
-0.0316671
-0.0144998
0.00149806
0.0159365
0.0287703
0.0400027
0.0497196
0.0581399
0.0654698
0.0719209
0.0777193
0.0830629
0.0880969
0.0928823
0.0974526
0.101754
0.105699
0.109174
0.112004
0.114156
0.115581
0.116248
0.116218
0.115472
0.114021
0.111918
0.109308
0.106421
0.103575
0.101154
0.0993362
0.0980982
0.0972288
0.0964207
0.0954135
0.0941732
0.0927628
0.0914659
0.0905456
0.0901342
0.0902003
0.0905781
0.0909136
0.0908243
0.0899851
0.0881416
0.0852986
0.0816379
0.0774731
0.0732196
0.0691667
0.0654097
0.0619126
0.0584705
0.0548916
0.0511385
0.0472573
0.0434639
0.0399933
0.0370196
0.034561
0.032552
0.0308538
0.0293179
0.0278773
0.0265744
0.0254889
0.0246747
0.0242465
0.0240515
0.0239519
0.0237193
0.0229858
0.0214606
0.0189396
0.0154007
0.0110632
0.00636933
0.00187683
-0.00193613
-0.00475845
-0.00666437
-0.00785928
-0.00870751
-0.00951466
-0.010477
-0.0115638
-0.0127158
-0.01374
-0.0145474
-0.0150537
-0.0152076
-0.0149532
-0.014329
-0.0134921
-0.0124905
-0.0114741
-0.0104127
-0.00905716
-0.00693573
-0.00348024
0.00164945
0.00841786
0.0164029
0.0246957
0.0323822
0.0388734
0.0441329
0.0485957
0.0531033
0.0583496
0.0647372
0.0719683
0.079247
0.0853716
0.0892696
0.0902225
0.0880178
0.0830562
0.0762159
0.0687119
0.0617734
0.0566363
0.0541499
0.0547583
0.0580935
0.0628442
0.0670596
0.0685181
0.0652695
0.0564949
0.0426606
0.0253918
0.00690088
-0.0106348
-0.0256615
-0.0375119
-0.0462803
-0.0524199
-0.0564657
-0.058823
-0.0598629
-0.0599528
-0.0595043
-0.0588677
-0.0582742
-0.0578645
-0.0575127
-0.0570952
-0.0564224
-0.0555203
-0.0544879
-0.0534708
-0.0525318
-0.0517601
-0.051139
-0.0508377
-0.0512989
-0.0535154
-0.0589207
-0.069208
-0.0859894
-0.110094
-0.141171
-0.176864
-0.212226
-0.239667
-0.249243
-0.229485
-0.168527
-0.0569432
0.109013
0.323743
0.569463
0.815831
1.02373
1.15343
1.1755
1.08064
0.884223
0.623662
0.348033
0.104226
-0.0755655
-0.180421
-0.219539
-0.214798
-0.190872
-0.166922
-0.152702
-0.149309
-0.153017
-0.159101
-0.164243
-0.167038
-0.167795
-0.167283
-0.166092
-0.164385
-0.162179
-0.159428
-0.156344
-0.153199
-0.150337
-0.148098
-0.146679
-0.146218
-0.146704
-0.14795
-0.149683
-0.151618
-0.153379
-0.154625
-0.155025
-0.154267
-0.152176
-0.148809
-0.144422
-0.139554
-0.134925
-0.13116
-0.128639
-0.127406
-0.127004
-0.126765
-0.125904
-0.123932
-0.120637
-0.116268
-0.111409
-0.106745
-0.102944
-0.100426
-0.0993778
-0.0997691
-0.101385
-0.103786
-0.106479
-0.108897
-0.110425
-0.110783
-0.109852
-0.107901
-0.105441
-0.103093
-0.101312
-0.100478
-0.100591
-0.101434
-0.10273
-0.104062
-0.105069
-0.105543
-0.105381
-0.10461
-0.103369
-0.101949
-0.100663
-0.099734
-0.0993715
-0.0996197
-0.10055
-0.102124
-0.10434
-0.107011
-0.109955
-0.112532
-0.113997
-0.113164
-0.108876
-0.100154
-0.0865995
-0.0685104
-0.0469639
-0.023644
-0.000316978
0.0213523
0.0402136
0.0558557
0.0682945
0.0780161
0.0855558
0.0913917
0.0959044
0.0991802
0.101397
0.102631
0.103218
0.103461
0.103798
0.104466
0.105663
0.107203
0.108881
0.110291
0.11116
0.111248
0.110506
0.108986
0.106779
0.103978
0.100671
0.097025
0.093238
0.0895462
0.0862434
0.0834015
0.0810033
0.0788673
0.076669
0.0742164
0.0714219
0.0683881
0.065324
0.0624736
0.0599667
0.057822
0.0559543
0.0542347
0.0525344
0.050739
0.0487381
0.0465591
0.0442411
0.0419204
0.039671
0.0376816
0.0359823
0.0345536
0.0333289
0.0320433
0.0304362
0.02824
0.0252604
0.0214812
0.0169955
0.0121394
0.00728369
0.00281928
-0.000992644
-0.00400897
-0.00625884
-0.00785557
-0.00899541
-0.00976276
-0.0102256
-0.0103315
-0.0100135
-0.00926591
-0.00818794
-0.00703989
-0.00613496
-0.00580899
-0.00622537
-0.00738468
-0.00918114
-0.0113032
-0.0135417
-0.0156721
-0.0174746
-0.018855
-0.0195981
-0.0195913
-0.0188151
-0.0173454
-0.0154799
-0.0135392
-0.0119001
-0.0107223
-0.00997555
-0.00940414
-0.00856405
-0.00694407
-0.00401794
0.000548251
0.00685549
0.0146615
0.0234241
0.0323255
0.0405568
0.0475184
0.0529749
0.0571394
0.0605489
0.0637999
0.0673197
0.0712915
0.075656
0.080204
0.0847342
0.0889508
0.092596
0.0952837
0.0966712
0.0963845
0.0943273
0.0905164
0.085233
0.0789739
0.0723168
0.0661003
0.0612846
0.0589486
0.0597824
0.0638226
0.069966
0.0761319
0.0797005
0.0782922
0.0705105
0.0564605
0.037643
0.0165753
-0.00405699
-0.022013
-0.0360473
-0.045778
-0.0515689
-0.054237
-0.054831
-0.054305
-0.0536947
-0.0536639
-0.0545116
-0.0561115
-0.0578154
-0.0589299
-0.0587205
-0.0570415
-0.0541665
-0.0508156
-0.047875
-0.0461802
-0.0461035
-0.0479883
-0.0522802
-0.0598441
-0.0719741
-0.0900756
-0.114977
-0.146137
-0.180387
-0.211707
-0.231392
-0.229077
-0.193857
-0.116126
0.0101788
0.184829
0.398695
0.632202
0.855664
1.03347
1.13144
1.12632
1.01378
0.81157
0.556188
0.293364
0.0652061
-0.100282
-0.194695
-0.227665
-0.219941
-0.194497
-0.16905
-0.152592
-0.146376
-0.147099
-0.150604
-0.153936
-0.15602
-0.157372
-0.158753
-0.160547
-0.162536
-0.164216
-0.165106
-0.164941
-0.163738
-0.161658
-0.158996
-0.155997
-0.152816
-0.149647
-0.14657
-0.143685
-0.141049
-0.138655
-0.136465
-0.13431
-0.132127
-0.129911
-0.127774
-0.125915
-0.124581
-0.123883
-0.123889
-0.124286
-0.124625
-0.124458
-0.123401
-0.121373
-0.118614
-0.115572
-0.112777
-0.110611
-0.109153
-0.108207
-0.107478
-0.106708
-0.105731
-0.104587
-0.103396
-0.102176
-0.100815
-0.0992376
-0.097324
-0.0950878
-0.092701
-0.090541
-0.0889079
-0.0880683
-0.0881365
-0.0890354
-0.0905954
-0.0924636
-0.0942276
-0.0955869
-0.0962568
-0.0961918
-0.095473
-0.0942676
-0.0927605
-0.0912048
-0.0898329
-0.0889532
-0.0889644
-0.090147
-0.0925467
-0.0960151
-0.0999774
-0.103545
-0.105855
-0.10611
-0.103795
-0.0987073
-0.0908951
-0.0806765
-0.0685318
-0.0552287
-0.0417682
-0.0292443
-0.0187301
-0.0109293
-0.00607445
-0.00372239
-0.00287765
-0.00225981
-0.000736654
0.00253605
0.00771756
0.0146136
0.0226643
0.0312466
0.0398057
0.0480959
0.0559684
0.0633501
0.0702117
0.076466
0.0819799
0.0866799
0.0906193
0.093924
0.0967403
0.099191
0.101355
0.103162
0.104486
0.105158
0.105011
0.103893
0.101675
0.098334
0.0939251
0.0887335
0.0832972
0.0781921
0.0739339
0.0707503
0.0685029
0.0667427
0.064903
0.0626618
0.0600874
0.0574854
0.0553022
0.0539575
0.0534564
0.0534916
0.0535488
0.0531519
0.0520133
0.0501517
0.047684
0.0448396
0.0417389
0.0383656
0.034686
0.030569
0.0261074
0.0215287
0.0171705
0.0134317
0.0106289
0.00881976
0.0078094
0.00708115
0.00611571
0.00438951
0.00170497
-0.00165556
-0.00511472
-0.00786022
-0.00925279
-0.00897226
-0.00710842
-0.0041822
-0.000920506
0.00187031
0.00372257
0.00426956
0.00351577
0.00178775
-0.000580814
-0.00309028
-0.00545006
-0.00755663
-0.0095046
-0.0115582
-0.0139837
-0.0169328
-0.0204155
-0.0242585
-0.0281112
-0.0315351
-0.0341358
-0.0356612
-0.0359739
-0.0352644
-0.0337833
-0.0318857
-0.0299355
-0.0282788
-0.0271592
-0.0266944
-0.0271003
-0.0283171
-0.0302131
-0.0325541
-0.0347632
-0.0363733
-0.0368079
-0.0357101
-0.0328483
-0.0282404
-0.0220563
-0.014634
-0.00649858
0.00172935
0.00940727
0.0161281
0.0218368
0.0268271
0.031788
0.0374552
0.0442612
0.0521472
0.0604972
0.068225
0.0740915
0.0771432
0.0770151
0.0739452
0.0689512
0.0633803
0.0584315
0.0549447
0.052981
0.0520479
0.0512864
0.0500905
0.0484456
0.0470798
0.0470852
0.0492906
0.053661
0.0589463
0.062946
0.06338
0.0584015
0.0475073
0.0316919
0.0130183
-0.00605681
-0.023267
-0.0370584
-0.0468874
-0.0529268
-0.0558761
-0.0568391
-0.0568278
-0.0567925
-0.057313
-0.0585598
-0.0604383
-0.0626313
-0.0647628
-0.0666246
-0.0682711
-0.0698918
-0.0717
-0.0737102
-0.0755415
-0.076544
-0.0762201
-0.074293
-0.0710127
-0.0674956
-0.0654445
-0.066878
-0.073619
-0.0869625
-0.107363
-0.134248
-0.165884
-0.199485
-0.231545
-0.257986
-0.274483
-0.276608
-0.259563
-0.217808
-0.14522
-0.0360897
0.112496
0.297373
0.506387
0.717073
0.898832
1.01904
1.05174
0.985751
0.829363
0.609452
0.36465
0.134968
-0.0484256
-0.169821
-0.229913
-0.241896
-0.224741
-0.196361
-0.169309
-0.149638
-0.138196
-0.133104
-0.131759
-0.132146
-0.13318
-0.134328
-0.135377
-0.136085
-0.136416
-0.136428
-0.136241
-0.136025
-0.136001
-0.136065
-0.136011
-0.135459
-0.134011
-0.131342
-0.127441
-0.12249
-0.116967
-0.111534
-0.106767
-0.103112
-0.100731
-0.099356
-0.0986179
-0.0979666
-0.0969864
-0.0955573
-0.0938862
-0.0924385
-0.0918048
-0.0924415
-0.0943598
-0.0972291
-0.100358
-0.102999
-0.104404
-0.104227
-0.102459
-0.0994302
-0.0956965
-0.0919665
-0.0888672
-0.0869084
-0.0864255
-0.0874193
-0.0896813
-0.0927476
-0.0960495
-0.0990302
-0.101245
-0.10238
-0.102441
-0.101643
-0.100496
-0.0996625
-0.0996179
-0.100573
-0.102333
-0.10426
-0.105626
-0.105977
-0.105447
-0.104756
-0.105048
-0.107342
-0.11225
-0.119582
-0.128447
-0.137521
-0.145375
-0.150893
-0.153491
-0.152988
-0.149634
-0.143896
-0.136268
-0.127285
-0.11743
-0.107288
-0.0973755
-0.0882694
-0.0804435
-0.0741551
-0.0692985
-0.0655473
-0.0624711
-0.059514
-0.0561487
-0.0519627
-0.0465338
-0.039574
-0.0308795
-0.0205227
-0.00883985
0.00360761
0.0160504
0.0278216
0.0385748
0.0482517
0.0572141
0.0658039
0.0741945
0.0823232
0.0898324
0.0963666
0.101875
0.1068
0.112192
0.119234
0.128937
0.141556
0.15648
0.17228
0.187092
0.199322
0.208004
0.212932
0.214631
0.214009
0.211911
0.208755
0.204547
0.198914
0.19152
0.182268
0.171352
0.159447
0.14744
0.136082
0.125959
0.1172
0.109546
0.102472
0.0952745
0.0876013
0.0792791
0.0705173
0.0618207
0.0536844
0.0465671
0.040615
0.0357128
0.0316324
0.0279656
0.0243649
0.0205379
0.0161992
0.0110865
0.00499075
-0.00212048
-0.00998044
-0.017939
-0.025157
-0.0308236
-0.0345217
-0.0365227
-0.0376894
-0.0392457
-0.0421931
-0.0468252
-0.0526546
-0.0585039
-0.063066
-0.0654638
-0.0656067
-0.0641262
-0.062012
-0.060182
-0.0591565
-0.0589286
-0.0590932
-0.0592581
-0.059264
-0.0592517
-0.0595455
-0.0604617
-0.0623475
-0.0656134
-0.0709866
-0.0796609
-0.0931014
-0.112528
-0.137952
-0.167087
-0.194956
-0.213895
-0.214553
-0.187255
-0.123339
-0.0170354
0.132766
0.320402
0.531722
0.743519
0.925551
1.04585
1.07827
1.01067
0.850123
0.622781
0.367681
0.126501
-0.0673193
-0.196031
-0.259444
-0.271209
-0.251579
-0.220032
-0.190169
-0.168511
-0.155715
-0.149523
-0.147009
-0.145889
-0.144921
-0.143575
-0.141623
-0.138934
-0.135513
-0.131582
-0.12747
-0.123672
-0.120486
-0.117996
-0.116131
-0.114575
-0.112963
-0.111028
-0.108582
-0.105592
-0.102215
-0.098798
-0.0958352
-0.0938266
-0.0930781
-0.0936559
-0.0953192
-0.0975457
-0.0997744
-0.101523
-0.10254
-0.102912
-0.10293
-0.10283
-0.102829
-0.102853
-0.102788
-0.10241
-0.101653
-0.10059
-0.099316
-0.0980578
-0.096905
-0.0958932
-0.0948611
-0.0936502
-0.0922104
-0.0906329
-0.0891966
-0.0882251
-0.0880442
-0.088659
-0.0898541
-0.091198
-0.092187
-0.0925042
-0.0921356
-0.091354
-0.0905083
-0.0899642
-0.0899113
-0.0903179
-0.0910533
-0.0920306
-0.0932062
-0.0946472
-0.0965443
-0.0989821
-0.10203
-0.10548
-0.109081
-0.112501
-0.115421
-0.11761
-0.118969
-0.119495
-0.119191
-0.118037
-0.115771
-0.112096
-0.106623
-0.0991104
-0.089636
-0.0785915
-0.0667668
-0.0550644
-0.0442442
-0.0348098
-0.0268368
-0.020048
-0.0139152
-0.00795805
-0.00170014
0.00518769
0.0129018
0.0214121
0.0305994
0.040147
0.0497198
0.0589587
0.0674983
0.0750608
0.0813778
0.086188
0.0892193
0.0904344
0.0899849
0.088301
0.08611
0.0840196
0.0826012
0.0820229
0.0821807
0.0827757
0.0834685
0.0840243
0.0843019
0.0844057
0.0843669
0.0842208
0.0839343
0.0834275
0.0827264
0.0818843
0.081014
0.0802506
0.0797254
0.0794414
0.0792087
0.0787943
0.0779219
0.0763509
0.0740041
0.070922
0.0672053
0.0632392
0.0593852
0.0560689
0.0537055
0.0525138
0.0525682
0.0536928
0.0555393
0.0575259
0.0591399
0.0598415
0.0593356
0.0576537
0.0551148
0.0522752
0.0497457
0.0480905
0.0474552
0.0476181
0.0482074
0.048735
0.0489165
0.0488083
0.0486798
0.0488968
0.0496813
0.0509608
0.0524146
0.0536992
0.0545863
0.0551094
0.0554988
0.0559584
0.056599
0.0573162
0.0577276
0.0574248
0.0560736
0.0535162
0.0497464
0.0449175
0.0393661
0.0335225
0.0280194
0.0234613
0.0203981
0.0189961
0.0190664
0.0200854
0.02137
0.0223091
0.0225703
0.0220817
0.0210371
0.0197899
0.0185759
0.0175205
0.0165963
0.015703
0.014711
0.0135896
0.0123928
0.011193
0.0101812
0.00950667
0.00918829
0.00927124
0.0096476
0.0102218
0.0107766
0.0112612
0.011501
0.0115131
0.0114067
0.0113518
0.0115776
0.0123243
0.0136763
0.0154777
0.0175009
0.0193068
0.0204864
0.020692
0.0197703
0.0179266
0.0155655
0.013212
0.0113039
0.0101736
0.00977656
0.00992399
0.0103077
0.0106202
0.0107161
0.0105012
0.0101423
0.00987426
0.0099587
0.0105636
0.0117977
0.0136204
0.015838
0.018166
0.0202693
0.0220018
0.0232878
0.0241376
0.024596
0.0247141
0.0243986
0.023471
0.0217986
0.0192857
0.016026
0.0122896
0.00852349
0.00529437
0.00309953
0.00224869
0.00275409
0.00436501
0.00660625
0.00880425
0.0103774
0.0109689
0.0104644
0.0091082
0.00750973
0.00644066
0.00676148
0.00917988
0.0141524
0.0216803
0.0313135
0.0421953
0.053336
0.0638211
0.0729654
0.0805698
0.0866888
0.0915593
0.0954682
0.0984028
0.100114
0.100375
0.0989477
0.0959524
0.0917104
0.0867277
0.0815515
0.0766234
0.0722317
0.0685511
0.0657546
0.0641703
0.0641745
0.0660199
0.0694082
0.0734318
0.0765519
0.0770141
0.0733867
0.0650596
0.0525953
0.0375224
0.0219838
0.00796851
-0.00336173
-0.0118834
-0.0182017
-0.023486
-0.0285561
-0.0339743
-0.0396781
-0.0451886
-0.0499392
-0.0535722
-0.0560806
-0.0577633
-0.0590173
-0.0601757
-0.0613278
-0.0624061
-0.0631896
-0.0635146
-0.0633829
-0.0628438
-0.0620316
-0.0610899
-0.060131
-0.0592778
-0.0588104
-0.0591063
-0.0610205
-0.0657313
-0.0746664
-0.0891428
-0.110015
-0.137019
-0.16821
-0.199267
-0.223414
-0.231907
-0.214883
-0.162528
-0.0664463
0.0782587
0.270398
0.500307
0.74805
0.98382
1.17163
1.27643
1.27347
1.15663
0.942434
0.667369
0.378752
0.121895
-0.0712876
-0.188686
-0.23771
-0.238687
-0.216048
-0.18997
-0.171949
-0.165075
-0.166836
-0.172694
-0.178858
-0.183253
-0.18551
-0.186265
-0.186237
-0.185968
-0.185734
-0.185661
-0.185645
-0.185385
-0.184602
-0.183003
-0.180456
-0.177129
-0.173345
-0.169615
-0.166361
-0.163887
-0.162244
-0.161295
-0.160668
-0.159933
-0.158798
-0.157021
-0.154623
-0.151829
-0.14898
-0.14646
-0.14465
-0.143698
-0.143546
-0.143981
-0.144729
-0.145555
-0.146264
-0.146849
-0.147293
-0.14756
-0.147496
-0.146892
-0.145556
-0.143412
-0.14051
-0.137184
-0.133759
-0.130619
-0.127968
-0.125861
-0.1242
-0.122807
-0.121476
-0.120158
-0.118836
-0.117545
-0.116364
-0.115399
-0.114777
-0.114651
-0.115233
-0.116559
-0.118752
-0.121691
-0.125143
-0.128683
-0.132038
-0.134895
-0.137174
-0.138927
-0.140412
-0.141792
-0.143185
-0.144455
-0.145157
-0.144571
-0.141943
-0.13668
-0.128468
-0.117331
-0.103804
-0.0887307
-0.0731999
-0.0583394
-0.045189
-0.0343874
-0.0260817
-0.0198886
-0.0149345
-0.0102843
-0.00510827
0.000925055
0.00784914
0.0152959
0.022861
0.0303446
0.0377916
0.0453451
0.0532072
0.0614188
0.0697924
0.0779498
0.0855472
0.0923475
0.0982103
0.103111
0.107156
0.110358
0.112811
0.114629
0.115922
0.116782
0.11733
0.117573
0.117348
0.116623
0.115268
0.113303
0.110818
0.107962
0.104967
0.101968
0.0990498
0.0963651
0.0939498
0.0918017
0.0899098
0.08826
0.0867704
0.0853282
0.0839166
0.0823935
0.080657
0.0785894
0.0760654
0.0730274
0.0696004
0.066051
0.0627783
0.0601446
0.0583413
0.0571544
0.0561268
0.054687
0.0522982
0.0488597
0.0445796
0.0400662
0.0359563
0.0326271
0.0301187
0.0282286
0.0265699
0.0248414
0.0229123
0.020862
0.0187388
0.0166167
0.0144668
0.0122097
0.00987484
0.00756641
0.00549018
0.00396046
0.00307166
0.00280513
0.00295738
0.00317889
0.0032083
0.00287333
0.00218254
0.00115202
-0.000117339
-0.00171295
-0.00366922
-0.00604612
-0.00869568
-0.0114055
-0.0137411
-0.0154269
-0.0163035
-0.016452
-0.016078
-0.0154245
-0.0146701
-0.013878
-0.0130929
-0.0123736
-0.0117958
-0.0116626
-0.0119899
-0.0128624
-0.0140808
-0.0152339
-0.0159511
-0.0160074
-0.015435
-0.0145683
-0.0138888
-0.0137123
-0.0140762
-0.014521
-0.0142521
-0.01231
-0.00806332
-0.00127245
0.00754611
0.0175209
0.0274893
0.0364668
0.04391
0.0498755
0.0548403
0.0596174
0.0648948
0.0711161
0.0781946
0.0855825
0.0923431
0.0974059
0.0999298
0.0994834
0.0960966
0.0903862
0.0832997
0.0757605
0.0686634
0.0626258
0.0580547
0.0552985
0.054644
0.0561446
0.0594471
0.0634972
0.0667529
0.0674764
0.0641608
0.0561352
0.0437556
0.0282925
0.0115626
-0.00453755
-0.0185561
-0.0296373
-0.037577
-0.042569
-0.0451417
-0.0460579
-0.0460013
-0.0456703
-0.0455456
-0.045833
-0.0465724
-0.0475614
-0.0485815
-0.0494807
-0.0501846
-0.0508071
-0.0513472
-0.051653
-0.051529
-0.0507311
-0.0492784
-0.0476607
-0.04698
-0.0486711
-0.0539673
-0.0634375
-0.0766189
-0.0923381
-0.109173
-0.12635
-0.144099
-0.16339
-0.18487
-0.207491
-0.227493
-0.237883
-0.229321
-0.191422
-0.114498
0.00828663
0.178281
0.389096
0.624502
0.858128
1.05615
1.1833
1.21181
1.13013
0.948502
0.697934
0.422621
0.168178
-0.0305097
-0.156867
-0.213872
-0.219085
-0.195975
-0.165617
-0.141648
-0.129107
-0.126797
-0.130827
-0.137318
-0.143735
-0.149042
-0.153093
-0.155966
-0.157605
-0.157887
-0.156744
-0.154419
-0.151357
-0.148069
-0.145061
-0.142634
-0.140746
-0.13909
-0.137227
-0.134785
-0.131673
-0.128178
-0.124738
-0.121913
-0.120004
-0.118953
-0.118356
-0.117786
-0.116908
-0.115609
-0.114108
-0.112685
-0.111725
-0.111344
-0.111539
-0.11204
-0.112568
-0.112746
-0.112337
-0.111313
-0.109775
-0.107893
-0.10598
-0.104168
-0.102564
-0.101153
-0.0998476
-0.0985824
-0.097322
-0.0960078
-0.0945771
-0.0929885
-0.0913324
-0.0896473
-0.088078
-0.0868047
-0.0859511
-0.08552
-0.0854476
-0.0856347
-0.0858943
-0.0861602
-0.0863615
-0.086488
-0.0865759
-0.0866455
-0.0868181
-0.0873163
-0.0883993
-0.0903579
-0.0933377
-0.097308
-0.102037
-0.107066
-0.111836
-0.115762
-0.118375
-0.119137
-0.117469
-0.112863
-0.105017
-0.0938271
-0.0798291
-0.0641553
-0.0482298
-0.0335585
-0.0213309
-0.0119485
-0.00511282
0.000151016
0.00507349
0.0106516
0.0174878
0.0255512
0.0343517
0.0431492
0.0513183
0.058501
0.0646602
0.0700402
0.0748873
0.0793622
0.0836373
0.0876682
0.0913981
0.0948438
0.0980324
0.100845
0.103308
0.105308
0.106677
0.10736
0.107356
0.10667
0.105385
0.10351
0.100993
0.0977849
0.0938701
0.0892722
0.0842023
0.0789873
0.0739463
0.0694535
0.0657453
0.0627825
0.0604346
0.0584147
0.0563951
0.0541809
0.0518111
0.0493829
0.0472325
0.0456395
0.0446843
0.0442666
0.0441132
0.0438054
0.0429503
0.0413392
0.0389696
0.035939
0.0324427
0.0287135
0.0248968
0.0212154
0.0178223
0.0148064
0.0123061
0.0103165
0.00876582
0.00761739
0.00673321
0.00608509
0.00560252
0.00531176
0.00522641
0.00540081
0.00580191
0.00641952
0.00715977
0.00792661
0.00862161
0.00924785
0.0098476
0.010554
0.011442
0.0125163
0.0137096
0.0148118
0.0156165
0.0159064
0.0155233
0.0144225
0.0126435
0.0102936
0.0075468
0.00453977
0.00149562
-0.00144136
-0.00409917
-0.00623492
-0.00774726
-0.00851635
-0.00851084
-0.00791986
-0.00699949
-0.00611443
-0.00556315
-0.00548379
-0.00571815
-0.00582156
-0.00513073
-0.00299119
0.000997078
0.00695273
0.014534
0.0230104
0.0315293
0.0392574
0.0456435
0.0504182
0.0537043
0.0559538
0.0577831
0.0600241
0.0633155
0.0679171
0.073661
0.0798118
0.085241
0.0887751
0.0895577
0.0873692
0.0825737
0.0761512
0.0694399
0.0637655
0.0601625
0.0593267
0.061481
0.0660862
0.0718813
0.0771319
0.0797777
0.0780526
0.0708399
0.0581577
0.0411236
0.0216002
0.00187219
-0.0161347
-0.0310068
-0.042162
-0.0497177
-0.0542889
-0.0566596
-0.0576021
-0.0577218
-0.0574297
-0.0566927
-0.0554471
-0.0535017
-0.0509321
-0.047909
-0.044874
-0.0423678
-0.0410237
-0.0412652
-0.0432959
-0.0469239
-0.0516104
-0.0565615
-0.0609833
-0.0644384
-0.0670756
-0.0699663
-0.0748264
-0.0837286
-0.0985537
-0.120263
-0.148426
-0.180673
-0.212332
-0.236428
-0.243974
-0.224822
-0.168591
-0.0670587
0.0830463
0.276761
0.498407
0.721227
0.910742
1.03173
1.05738
0.97795
0.805297
0.570864
0.317562
0.0878857
-0.0871376
-0.194399
-0.238865
-0.238059
-0.21369
-0.184389
-0.16142
-0.148451
-0.144004
-0.144692
-0.147423
-0.150295
-0.152674
-0.154448
-0.155474
-0.155549
-0.154435
-0.152132
-0.148872
-0.145087
-0.141311
-0.137996
-0.135539
-0.134115
-0.133663
-0.13384
-0.1341
-0.133897
-0.132857
-0.130847
-0.128059
-0.124954
-0.122023
-0.119736
-0.118298
-0.117707
-0.117768
-0.118143
-0.118366
-0.117977
-0.11667
-0.114237
-0.110802
-0.106713
-0.102488
-0.0987595
-0.0960323
-0.0947195
-0.094894
-0.0962494
-0.0982702
-0.100248
-0.101613
-0.102098
-0.101725
-0.100823
-0.0997827
-0.098815
-0.0978996
-0.0968172
-0.0954174
-0.0936602
-0.0918561
-0.0904911
-0.0900872
-0.0908488
-0.0926275
-0.0949567
-0.0971102
-0.0984014
-0.0983644
-0.0969838
-0.094745
-0.0924563
-0.091116
-0.09157
-0.0942779
-0.0991976
-0.105917
-0.113602
-0.121461
-0.128788
-0.135037
-0.139753
-0.142509
-0.142772
-0.13994
-0.133702
-0.124054
-0.111627
-0.097425
-0.0827887
-0.0689997
-0.0569615
-0.0470459
-0.0390463
-0.0323927
-0.0263705
-0.0202836
-0.0137243
-0.00644768
0.00150446
0.0100062
0.0188108
0.0278923
0.0370978
0.0463519
0.055476
0.0641322
0.0718281
0.0780228
0.0823268
0.0846211
0.0852074
0.0846083
0.0836855
0.0830947
0.0832286
0.0840689
0.0852746
0.0863067
0.0866147
0.0858481
0.0838509
0.0806269
0.0764747
0.0717605
0.0671115
0.0631666
0.0605593
0.0596282
0.0604093
0.0624573
0.0651036
0.0675605
0.0691003
0.069308
0.0679675
0.0651596
0.0611827
0.0565996
0.0519662
0.0479607
0.0448981
0.0428397
0.0414142
0.040055
0.0382646
0.0357854
0.0328512
0.0300449
0.0279157
0.0268605
0.0266431
0.0267858
0.0265755
0.0253829
0.0229608
0.0195803
0.0156847
0.0118891
0.00860131
0.00598635
0.00409635
0.00278156
0.00195048
0.00146664
0.00123954
0.00111143
0.000971339
0.000756809
0.000445408
0.000140239
-1.81152e-5
7.2117e-5
0.000369186
0.000663996
0.000752708
0.000444526
-0.00021156
-0.0011201
-0.00210051
-0.00289996
-0.00337291
-0.00353962
-0.003466
-0.00348548
-0.00379606
-0.00470438
-0.00641501
-0.00884649
-0.0116146
-0.0139005
-0.0147473
-0.0133171
-0.00925435
-0.00296042
0.00463181
0.012474
0.0198109
0.0265494
0.0331706
0.0404719
0.0488668
0.0581661
0.0675425
0.0758576
0.08219
0.0861383
0.0879812
0.0882925
0.0877551
0.0867875
0.0853671
0.0832316
0.0799619
0.0752012
0.0688231
0.0609794
0.052259
0.043558
0.036072
0.0311842
0.0299024
0.0322913
0.0372776
0.0428447
0.0463895
0.0454775
0.0388711
0.0266892
0.0104676
-0.00746181
-0.024666
-0.039299
-0.0504217
-0.0579037
-0.0621729
-0.0638091
-0.0635474
-0.0621252
-0.0602254
-0.058548
-0.0576808
-0.0580168
-0.0597031
-0.06248
-0.0658207
-0.0691547
-0.0717162
-0.0729288
-0.0723365
-0.0700223
-0.0663908
-0.0621981
-0.0588576
-0.0579755
-0.0614019
-0.0708816
-0.0876167
-0.111898
-0.142428
-0.175475
-0.204701
-0.221141
-0.213585
-0.16999
-0.0799195
0.0620421
0.252639
0.477259
0.709363
0.913566
1.05273
1.09729
1.03406
0.871384
0.63786
0.375381
0.127734
-0.0704707
-0.201095
-0.26416
-0.273696
-0.250466
-0.214636
-0.180673
-0.155809
-0.141451
-0.135545
-0.134931
-0.136886
-0.139623
-0.142307
-0.144443
-0.145674
-0.145817
-0.144842
-0.142916
-0.140394
-0.137728
-0.135331
-0.133481
-0.132219
-0.131378
-0.130535
-0.129345
-0.127542
-0.125091
-0.122066
-0.118647
-0.115052
-0.111356
-0.107528
-0.103422
-0.0989991
-0.0943352
-0.0896989
-0.0855895
-0.0825288
-0.081004
-0.0812049
-0.0830608
-0.0861725
-0.0899399
-0.0936891
-0.0967552
-0.0987526
-0.0995944
-0.0994184
-0.0986786
-0.0979172
-0.0976215
-0.0980046
-0.0989219
-0.0999955
-0.100631
-0.100303
-0.0987315
-0.095978
-0.0924226
-0.088581
-0.085079
-0.0823874
-0.080739
-0.0801498
-0.0804763
-0.0815739
-0.0832059
-0.0851807
-0.087409
-0.0898792
-0.0926802
-0.095896
-0.0996324
-0.103839
-0.108392
-0.113085
-0.117703
-0.122141
-0.126374
-0.130464
-0.134415
-0.138078
-0.140969
-0.142396
-0.141519
-0.137645
-0.130324
-0.119683
-0.106341
-0.0913856
-0.076104
-0.0616729
-0.0488522
-0.0379512
-0.0286622
-0.0203701
-0.0122566
-0.00363035
0.00603886
0.0168718
0.0287928
0.0413989
0.0541352
0.0664023
0.0776435
0.0874972
0.09576
0.102526
0.108025
0.112732
0.116998
0.121062
0.124935
0.128493
0.131475
0.133562
0.134655
0.134775
0.134011
0.132608
0.130623
0.128136
0.125182
0.12174
0.117968
0.114022
0.110177
0.106737
0.104014
0.102216
0.101363
0.10132
0.101744
0.102233
0.102469
0.102243
0.10164
0.101003
0.100679
0.101058
0.102217
0.104078
0.106158
0.107927
0.108807
0.108262
0.106007
0.102007
0.0964438
0.0897983
0.082626
0.0756168
0.0693366
0.0641951
0.0603207
0.0576095
0.0558398
0.0546733
0.0539104
0.0534083
0.0530878
0.0529383
0.0529027
0.0529459
0.0530722
0.0533316
0.0537049
0.0541913
0.0546594
0.0548731
0.0544789
0.0531935
0.0509187
0.047735
0.043959
0.040042
0.0364158
0.0334621
0.0313282
0.0299157
0.0289591
0.0282046
0.0274084
0.026426
0.0252519
0.0239008
0.022424
0.0208497
0.0192478
0.0176689
0.0163052
0.0151602
0.0144764
0.0142199
0.0144157
0.014925
0.0156609
0.0165179
0.017505
0.0187572
0.0204648
0.0229082
0.0263115
0.0307431
0.0360619
0.0420109
0.0482447
0.0544666
0.060591
0.0667624
0.0732186
0.0802261
0.0878297
0.0956217
0.102928
0.108847
0.112482
0.113445
0.111706
0.107787
0.102463
0.0966628
0.0912386
0.086914
0.0843118
0.0838007
0.0853437
0.088136
0.0907563
0.0913064
0.0880279
0.0797895
0.0666249
0.0496716
0.0308593
0.0124125
-0.00384101
-0.0167338
-0.0259349
-0.031629
-0.0344446
-0.0351195
-0.0343461
-0.0328164
-0.0311451
-0.0296788
-0.028686
-0.0283194
-0.0286706
-0.0297193
-0.0314362
-0.0335981
-0.0359211
-0.0378869
-0.0389179
-0.0386482
-0.0370685
-0.0346319
-0.0323291
-0.0316417
-0.0344451
-0.0427568
-0.05821
-0.0817015
-0.112785
-0.148654
-0.183574
-0.208822
-0.213385
-0.18475
-0.110931
0.0164496
0.198615
0.426173
0.677
0.917094
1.10586
1.20523
1.19077
1.06025
0.836275
0.561141
0.285237
0.0528386
-0.109066
-0.195356
-0.21954
-0.20534
-0.176891
-0.151477
-0.13661
-0.132135
-0.13405
-0.13809
-0.141469
-0.14333
-0.143943
-0.143924
-0.143567
-0.142937
-0.142145
-0.141413
-0.141086
-0.141363
-0.142302
-0.143706
-0.145196
-0.146355
-0.146971
-0.146886
-0.146225
-0.145177
-0.144092
-0.14313
-0.142391
-0.141688
-0.140869
-0.139661
-0.137898
-0.135545
-0.132635
-0.129276
-0.125593
-0.121687
-0.117694
-0.113844
-0.110404
-0.107653
-0.10586
-0.105103
-0.10529
-0.106086
-0.107255
-0.10849
-0.109594
-0.110586
-0.111448
-0.112254
-0.112946
-0.113478
-0.113706
-0.113624
-0.113218
-0.112591
-0.111794
-0.11085
-0.109814
-0.108673
-0.10753
-0.106527
-0.105828
-0.105681
-0.106295
-0.107825
-0.110187
-0.113238
-0.116572
-0.11977
-0.122376
-0.124063
-0.12479
-0.124729
-0.124313
-0.124029
-0.124316
-0.12534
-0.126931
-0.128542
-0.129266
-0.127987
-0.123725
-0.115793
-0.104065
-0.089123
-0.0720884
-0.0543863
-0.0375275
-0.0225857
-0.0101131
-5.93349e-5
0.00809757
0.0151736
0.0219341
0.028933
0.0364712
0.0444611
0.0526349
0.060613
0.0679749
0.0744215
0.0797926
0.084107
0.0875426
0.0903182
0.0926205
0.0945373
0.096118
0.0973045
0.098066
0.0984806
0.0986553
0.0986697
0.098647
0.0985651
0.0983479
0.0978938
0.097052
0.0957538
0.0939731
0.0917197
0.0891029
0.0861948
0.0830979
0.0798562
0.0765202
0.0729828
0.069335
0.0656745
0.0620668
0.0586979
0.055675
0.0529965
0.0506341
0.0484386
0.0463709
0.0443356
0.0423356
0.0403521
0.038418
0.0365325
0.0347567
0.0331421
0.0317959
0.0308035
0.0300993
0.0295355
0.0286749
0.0272426
0.0249816
0.0219472
0.0183957
0.0148733
0.0118497
0.0095726
0.00819374
0.00752983
0.00725416
0.00704599
0.0066342
0.00590234
0.00483031
0.0034641
0.00190198
0.000260507
-0.00147065
-0.00319511
-0.00498729
-0.00674424
-0.00821881
-0.00911127
-0.00910208
-0.0080886
-0.00615756
-0.00384003
-0.00177404
-0.000637649
-0.000834067
-0.00247752
-0.0053372
-0.00885896
-0.0124234
-0.015466
-0.0175748
-0.0186097
-0.0186795
-0.0180639
-0.0171648
-0.0162904
-0.0156761
-0.0152518
-0.0146971
-0.0136012
-0.0113337
-0.00744999
-0.00171156
0.00592991
0.0151185
0.0252173
0.0354468
0.0449859
0.0531992
0.0598167
0.0650045
0.06928
0.0733061
0.0776474
0.0823188
0.0869278
0.0906717
0.0927498
0.0926148
0.0902015
0.0859904
0.0807616
0.0755138
0.0711876
0.068715
0.0687688
0.071618
0.0769737
0.0838842
0.0906121
0.0952768
0.0962445
0.0925442
0.0842691
0.0723428
0.0582107
0.0433598
0.0289299
0.0155795
0.00346868
-0.00738714
-0.017083
-0.0255374
-0.032702
-0.0385144
-0.0428701
-0.045845
-0.0476566
-0.0485693
-0.048981
-0.0493319
-0.0499923
-0.0512087
-0.0529543
-0.055015
-0.0569201
-0.0581581
-0.0582982
-0.0572267
-0.0551828
-0.0528711
-0.0515897
-0.053135
-0.0595044
-0.0726662
-0.0938862
-0.12308
-0.158163
-0.194969
-0.227586
-0.249416
-0.254572
-0.238736
-0.199322
-0.13457
-0.0419134
0.0819689
0.23975
0.429911
0.642346
0.855626
1.03812
1.15433
1.17496
1.08758
0.902534
0.651885
0.380916
0.135102
-0.0522468
-0.16728
-0.215792
-0.217084
-0.194895
-0.169188
-0.151529
-0.145007
-0.147033
-0.153159
-0.1596
-0.16428
-0.167033
-0.168401
-0.169078
-0.169449
-0.169574
-0.169384
-0.168819
-0.16782
-0.166363
-0.164481
-0.162144
-0.159402
-0.156343
-0.153129
-0.149927
-0.146998
-0.144544
-0.14268
-0.141352
-0.14037
-0.139503
-0.138487
-0.13718
-0.135563
-0.133648
-0.131562
-0.129283
-0.12695
-0.124569
-0.122207
-0.120016
-0.118106
-0.116568
-0.11551
-0.114822
-0.114308
-0.113771
-0.112933
-0.111664
-0.109922
-0.107835
-0.105534
-0.103207
-0.101029
-0.0991861
-0.0979256
-0.0975182
-0.0982397
-0.100189
-0.103212
-0.10687
-0.11054
-0.113615
-0.115586
-0.116427
-0.116393
-0.115915
-0.115451
-0.115267
-0.115444
-0.11583
-0.116347
-0.116885
-0.117546
-0.118539
-0.120079
-0.122249
-0.12497
-0.127972
-0.130851
-0.133122
-0.134264
-0.133696
-0.130824
-0.12514
-0.116442
-0.104848
-0.0908644
-0.075396
-0.0595204
-0.0441895
-0.0300799
-0.0175049
-0.00642199
0.00345776
0.0126172
0.0213691
0.0300015
0.0384894
0.0466998
0.0543998
0.0614433
0.0677626
0.0734126
0.0784806
0.0830206
0.0869393
0.090109
0.0922848
0.0933698
0.0933794
0.0925948
0.0913435
0.0900384
0.0890279
0.0884897
0.088385
0.088433
0.0882652
0.0875763
0.0861482
0.0840234
0.0813852
0.0784379
0.075435
0.0724701
0.0696185
0.0668971
0.0643177
0.0619152
0.0596677
0.0575572
0.055485
0.0533438
0.0511341
0.0489676
0.0469887
0.0453775
0.0442239
0.0434608
0.0428961
0.042271
0.0413664
0.0400329
0.0383138
0.0363082
0.0342187
0.0322024
0.0304021
0.0288398
0.0274863
0.0261228
0.0246173
0.022783
0.0205628
0.0179564
0.0150853
0.0119859
0.00868475
0.00509575
0.0011619
-0.00308496
-0.00740541
-0.0114839
-0.014803
-0.0170405
-0.018092
-0.0181037
-0.0175585
-0.0169914
-0.0168146
-0.0172837
-0.018302
-0.019475
-0.0203982
-0.0206337
-0.0200878
-0.0188014
-0.0172919
-0.0160239
-0.0154735
-0.0159133
-0.0173708
-0.0195835
-0.0221348
-0.0246028
-0.0265687
-0.0278855
-0.0285713
-0.0287904
-0.0288577
-0.028962
-0.0292189
-0.0296948
-0.0303598
-0.0311135
-0.0319243
-0.0325617
-0.0326632
-0.031613
-0.0286042
-0.0228665
-0.0139763
-0.00219601
0.0116
0.0259116
0.0391264
0.0500011
0.058024
0.0635425
0.0674865
0.0710386
0.0749769
0.0795414
0.0841862
0.0880125
0.0900277
0.0896172
0.0867564
0.0819966
0.0762888
0.0706919
0.0660426
0.0628098
0.0611887
0.0611078
0.0625749
0.0655537
0.0697427
0.0744531
0.0785443
0.0805436
0.0790223
0.0731284
0.0628509
0.0489793
0.032955
0.0163577
0.000518366
-0.0136827
-0.0256724
-0.0351696
-0.041963
-0.0460592
-0.0477831
-0.047864
-0.047283
-0.0469718
-0.0476502
-0.0494674
-0.0520465
-0.0546726
-0.0565943
-0.0573904
-0.0570007
-0.0557693
-0.0542848
-0.0530816
-0.052518
-0.0527128
-0.0534462
-0.0541719
-0.0543542
-0.0534692
-0.0513488
-0.0484545
-0.045941
-0.0457415
-0.0501806
-0.061478
-0.0811285
-0.109148
-0.143667
-0.180716
-0.213959
-0.235466
-0.236502
-0.208397
-0.143498
-0.0363827
0.114286
0.303864
0.519635
0.739929
0.935564
1.07447
1.12885
1.08332
0.940923
0.72417
0.47014
0.22101
0.0128385
-0.132709
-0.211876
-0.236157
-0.225484
-0.200612
-0.176872
-0.161817
-0.156298
-0.157299
-0.160876
-0.16406
-0.165647
-0.165722
-0.164773
-0.16335
-0.161643
-0.159708
-0.157469
-0.154979
-0.152414
-0.150109
-0.14842
-0.147683
-0.147952
-0.148993
-0.150224
-0.150986
-0.150614
-0.148734
-0.145432
-0.141117
-0.136396
-0.131787
-0.127465
-0.12341
-0.119411
-0.115314
-0.111212
-0.107429
-0.10446
-0.102666
-0.102192
-0.10271
-0.10368
-0.104485
-0.104726
-0.104291
-0.103376
-0.102411
-0.101775
-0.101744
-0.102318
-0.103367
-0.104792
-0.106457
-0.108416
-0.110681
-0.113179
-0.115621
-0.117622
-0.118593
-0.11809
-0.116042
-0.112589
-0.108351
-0.104019
-0.100236
-0.0974572
-0.0959371
-0.095702
-0.0966934
-0.0987751
-0.101649
-0.104962
-0.108255
-0.111155
-0.113376
-0.11503
-0.116494
-0.118218
-0.120715
-0.124063
-0.127888
-0.131328
-0.133199
-0.132416
-0.128269
-0.120733
-0.110353
-0.0983405
-0.085901
-0.0740818
-0.0635453
-0.0544121
-0.0464588
-0.0392579
-0.0325703
-0.0261609
-0.0200381
-0.0142759
-0.00897464
-0.00423117
-0.000115042
0.00342938
0.00653372
0.00945031
0.0126902
0.0168655
0.0224695
0.0298354
0.0385785
0.0479733
0.0568426
0.0640211
0.068646
0.0706232
0.0704603
0.0692675
0.0683422
0.0688213
0.0714511
0.076171
0.082417
0.0891431
0.0950391
0.0988533
0.0997418
0.0974767
0.0925704
0.0860626
0.0793518
0.0737193
0.0699259
0.0680143
0.0673297
0.0667658
0.0654509
0.0628827
0.0593562
0.0557873
0.0531883
0.0521929
0.0527801
0.05401
0.0546114
0.0533481
0.0494396
0.0431201
0.0353235
0.0273666
0.0205121
0.0155714
0.0126726
0.0114264
0.0110605
0.0108547
0.0102728
0.00910752
0.0073936
0.00534532
0.00328529
0.00148521
7.76526e-5
-0.000849775
-0.00140137
-0.00182577
-0.00231504
-0.002946
-0.00360114
-0.00392685
-0.00371896
-0.00290299
-0.00175505
-0.00100437
-0.00135578
-0.00336972
-0.00703096
-0.0117611
-0.0165686
-0.0203434
-0.02235
-0.022384
-0.0209664
-0.0189933
-0.0175302
-0.0174845
-0.0192998
-0.0228649
-0.027507
-0.0322497
-0.0360822
-0.0381781
-0.0381635
-0.0362107
-0.0329869
-0.0293947
-0.0262977
-0.0243622
-0.0237155
-0.0240026
-0.0246749
-0.0250539
-0.0247584
-0.0236856
-0.0220355
-0.0203153
-0.0190442
-0.0186182
-0.0190022
-0.0197763
-0.0201058
-0.0190326
-0.0157829
-0.010079
-0.00231713
0.00648127
0.0150805
0.0222648
0.0273839
0.0306211
0.0327595
0.0349143
0.0381514
0.0431433
0.0499655
0.0581483
0.0668752
0.0751983
0.0823342
0.0877612
0.0911437
0.0924675
0.0918228
0.0895335
0.0860847
0.0818988
0.0772136
0.0720241
0.0661619
0.0595087
0.0523164
0.045443
0.0401356
0.0376163
0.0384908
0.0420368
0.0465549
0.049535
0.0486297
0.0424182
0.0308859
0.015311
-0.0021769
-0.019335
-0.0344304
-0.0464319
-0.0549819
-0.0603223
-0.0628851
-0.0631919
-0.0618269
-0.0594258
-0.0566313
-0.0542112
-0.052888
-0.0531945
-0.0553014
-0.0589216
-0.0633323
-0.0676299
-0.0709658
-0.0726832
-0.0728138
-0.0717699
-0.0702908
-0.0690516
-0.0687887
-0.0702479
-0.0744667
-0.0829058
-0.0970406
-0.117866
-0.145101
-0.17615
-0.205627
-0.225762
-0.227093
-0.199491
-0.133621
-0.0228274
0.134273
0.331304
0.551976
0.769841
0.9513
1.06242
1.07781
0.988896
0.808318
0.567814
0.31004
0.0769642
-0.100908
-0.210796
-0.257566
-0.258125
-0.233415
-0.201394
-0.173017
-0.152384
-0.13922
-0.131578
-0.127725
-0.126774
-0.128352
-0.13196
-0.136539
-0.14081
-0.143645
-0.144517
-0.143563
-0.141323
-0.138476
-0.135492
-0.132626
-0.130011
-0.127709
-0.12594
-0.124863
-0.124583
-0.124856
-0.125146
-0.124754
-0.122963
-0.119535
-0.114853
-0.10968
-0.105118
-0.102111
-0.100973
-0.101492
-0.102952
-0.104486
-0.105399
-0.105471
-0.104901
-0.104092
-0.103382
-0.102803
-0.102149
-0.101111
-0.09953
-0.0974476
-0.0952029
-0.0933236
-0.0921867
-0.0920903
-0.0929056
-0.0941942
-0.0954656
-0.0961073
-0.0956556
-0.0940511
-0.0914785
-0.0885339
-0.086065
-0.0848949
-0.0854229
-0.0874737
-0.0903469
-0.0931031
-0.0949223
-0.0954872
-0.0950638
-0.0944713
-0.0946908
-0.0963901
-0.099631
-0.103965
-0.108463
-0.112261
-0.114858
-0.116153
-0.116461
-0.116235
-0.11585
-0.115487
-0.115036
-0.114147
-0.112351
-0.109199
-0.10439
-0.0979054
-0.0900606
-0.0814818
-0.0730133
-0.0654564
-0.0593907
-0.0550349
-0.0522246
-0.0504168
-0.0489128
-0.0469741
-0.0439731
-0.0394159
-0.0330372
-0.0247004
-0.0145287
-0.00281084
0.01001
0.0233821
0.0367305
0.0495547
0.0615543
0.0725773
0.0826118
0.0916731
0.0996702
0.106522
0.11211
0.116425
0.119697
0.122212
0.124376
0.126491
0.128602
0.1305
0.131793
0.132049
0.130961
0.128628
0.125354
0.121691
0.118251
0.11554
0.113824
0.112906
0.112419
0.111883
0.110853
0.109146
0.106707
0.103706
0.100415
0.0971734
0.0942589
0.091928
0.0901977
0.0890911
0.0883967
0.0879158
0.0874162
0.0866948
0.0856704
0.0842369
0.0823935
0.0799523
0.0767429
0.0726496
0.067832
0.0626623
0.0576975
0.0536418
0.0509587
0.0497741
0.0498047
0.0504509
0.0510934
0.0512847
0.0508411
0.0498581
0.0486357
0.0473891
0.0463069
0.0454459
0.044865
0.0446435
0.0449369
0.0459155
0.0476199
0.0499588
0.0526468
0.0552406
0.0573161
0.0585445
0.0588169
0.058189
0.0569073
0.0551781
0.0532162
0.0511005
0.0488101
0.0463469
0.0437017
0.0408432
0.0379055
0.0350544
0.0325011
0.0305405
0.029367
0.0290281
0.0294201
0.030243
0.0311364
0.0318727
0.0323237
0.0326059
0.0328487
0.0332032
0.0336773
0.034288
0.0350612
0.0362119
0.0380367
0.0409339
0.0451032
0.0504542
0.0567106
0.0633282
0.06981
0.0759344
0.081696
0.0873785
0.0932784
0.099509
0.105921
0.112008
0.117078
0.120432
0.121627
0.120555
0.117557
0.11334
0.108719
0.104382
0.10084
0.0983441
0.0970159
0.0969858
0.0984145
0.101372
0.105565
0.110073
0.11335
0.113583
0.109187
0.0994341
0.0847582
0.0666354
0.0472136
0.0286394
0.0123851
-0.000788906
-0.010945
-0.0185155
-0.0239917
-0.0276909
-0.0297754
-0.0304151
-0.0299299
-0.0288979
-0.0280232
-0.0279036
-0.0288419
-0.0306887
-0.0329267
-0.0350393
-0.0366398
-0.0376476
-0.0382863
-0.0387452
-0.0391693
-0.0395397
-0.0399174
-0.0406441
-0.0424856
-0.0464715
-0.0536193
-0.0646162
-0.0796157
-0.0984235
-0.120779
-0.146397
-0.174629
-0.204009
-0.231765
-0.253469
-0.263431
-0.255475
-0.223802
-0.163241
-0.069197
0.0619895
0.2314
0.434986
0.660516
0.885342
1.07782
1.20281
1.23108
1.1492
0.965902
0.71166
0.431416
0.171981
-0.030508
-0.15888
-0.216229
-0.220831
-0.197047
-0.166719
-0.1435
-0.131974
-0.130206
-0.133678
-0.138122
-0.141172
-0.142349
-0.142238
-0.141468
-0.140236
-0.138474
-0.136077
-0.1331
-0.129765
-0.126344
-0.123101
-0.120095
-0.117181
-0.11425
-0.111204
-0.108125
-0.105182
-0.102653
-0.100607
-0.099044
-0.0978037
-0.0966698
-0.0955504
-0.0944
-0.0933103
-0.0924357
-0.0918061
-0.0914205
-0.0911641
-0.0909359
-0.0906688
-0.0904014
-0.090147
-0.0900019
-0.0900346
-0.0902996
-0.090726
-0.0911723
-0.0913723
-0.0910266
-0.0899556
-0.0881013
-0.0857438
-0.0833001
-0.0812117
-0.0797929
-0.0790251
-0.0787356
-0.0786377
-0.0786556
-0.0788293
-0.0794175
-0.0806109
-0.0823751
-0.0844801
-0.0864505
-0.0877748
-0.0881806
-0.0877437
-0.0868471
-0.0859868
-0.0856277
-0.0861135
-0.0876046
-0.0901126
-0.0936087
-0.0979987
-0.103196
-0.109045
-0.115173
-0.121057
-0.126022
-0.129409
-0.130603
-0.129218
-0.12506
-0.118134
-0.108596
-0.0968116
-0.083237
-0.068502
-0.0533212
-0.0384596
-0.0246046
-0.0121421
-0.000980609
0.00922035
0.0189809
0.0287947
0.0388391
0.0489508
0.058778
0.0678821
0.0759143
0.0828882
0.0888793
0.094122
0.0988114
0.103023
0.106666
0.109686
0.111958
0.113449
0.114256
0.114619
0.114707
0.114773
0.11493
0.115123
0.115285
0.115228
0.114742
0.113688
0.111891
0.109274
0.105792
0.101582
0.0969869
0.0923913
0.0883058
0.0849545
0.0823828
0.0803235
0.0784008
0.0762614
0.0737983
0.0710355
0.0682796
0.0658144
0.0637825
0.0620973
0.0606225
0.0591657
0.0577398
0.0564362
0.0553459
0.0545341
0.0537635
0.0526043
0.0506946
0.0477323
0.0438058
0.0392736
0.034647
0.0305051
0.0270877
0.024466
0.0225568
0.0212537
0.0204624
0.020111
0.0201331
0.0204162
0.0207317
0.0208262
0.0205138
0.0196787
0.0183382
0.0166435
0.014713
0.0127153
0.0107747
0.00891818
0.00732275
0.00618847
0.00568843
0.0059976
0.00714514
0.00903372
0.0113535
0.0136617
0.0154443
0.0162895
0.0158821
0.0140402
0.0109278
0.00693967
0.00256816
-0.00154672
-0.00484635
-0.0069668
-0.00779855
-0.00761497
-0.00684605
-0.00595377
-0.00525009
-0.00485317
-0.00435867
-0.00322086
-0.000820934
0.00339428
0.00966907
0.0178119
0.0273386
0.0376169
0.0480213
0.0579861
0.0672886
0.0757314
0.0832503
0.0897245
0.0947869
0.0979969
0.0989868
0.097548
0.0938982
0.0886234
0.0825042
0.0764005
0.0709671
0.0666093
0.0636126
0.0624669
0.0635432
0.0672116
0.0732969
0.0806723
0.0874722
0.0914045
0.090536
0.0838325
0.0715716
0.0552534
0.0370068
0.0190035
0.00279252
-0.0108456
-0.0217411
-0.0301723
-0.0365864
-0.0413939
-0.0450345
-0.0479544
-0.0505928
-0.0532421
-0.0560408
-0.0588562
-0.0613371
-0.0631739
-0.0640775
-0.0641274
-0.0635713
-0.0627003
-0.0617592
-0.0607449
-0.0595893
-0.0582484
-0.0570848
-0.0571572
-0.0602195
-0.0685271
-0.0841702
-0.108255
-0.140198
-0.177021
-0.212867
-0.239363
-0.246497
-0.223554
-0.160446
-0.0494602
0.112307
0.320192
0.559562
0.804883
1.02172
1.17268
1.22603
1.16521
0.995134
0.742737
0.450898
0.167301
-0.0677892
-0.230458
-0.316407
-0.33783
-0.316326
-0.274814
-0.231371
-0.196451
-0.173627
-0.161953
-0.158333
-0.159445
-0.162725
-0.16671
-0.170587
-0.174014
-0.176754
-0.178627
-0.179502
-0.179386
-0.178449
-0.177064
-0.175626
-0.174348
-0.173216
-0.171963
-0.170233
-0.167827
-0.164707
-0.161101
-0.157329
-0.153722
-0.150451
-0.147524
-0.144959
-0.142656
-0.140515
-0.138449
-0.136454
-0.13443
-0.132437
-0.130479
-0.128591
-0.126793
-0.125079
-0.123385
-0.121646
-0.11981
-0.117905
-0.116061
-0.114351
-0.112955
-0.111937
-0.111234
-0.110779
-0.110443
-0.110116
-0.109751
-0.109419
-0.109275
-0.109408
-0.109895
-0.11066
-0.111497
-0.112101
-0.112121
-0.111343
-0.109729
-0.107558
-0.105299
-0.103399
-0.102191
-0.101702
-0.101731
-0.101871
-0.101864
-0.101684
-0.101579
-0.101968
-0.10326
-0.105569
-0.108675
-0.111961
-0.114473
-0.115204
-0.113306
-0.108154
-0.0995856
-0.0878677
-0.0736662
-0.0578141
-0.0413925
-0.0253868
-0.0106798
0.00207225
0.0125858
0.0208194
0.0271045
0.0319685
0.0361776
0.0404735
0.0455406
0.0517794
0.0593301
0.0679159
0.0769906
0.08588
0.0940334
0.101069
0.106773
0.111236
0.1145
0.116561
0.117249
0.116477
0.114264
0.110882
0.106885
0.102926
0.0997647
0.0978109
0.0971989
0.0976697
0.0987783
0.0999522
0.100725
0.100697
0.0997222
0.0976474
0.0945191
0.0904606
0.0858038
0.0809178
0.0761661
0.0718996
0.0683281
0.0654483
0.0632129
0.061476
0.0601555
0.0591554
0.0583558
0.0575767
0.0565514
0.0551225
0.0530875
0.0505523
0.0476617
0.0447067
0.0418014
0.0389835
0.036069
0.0327907
0.0288646
0.0242927
0.0192897
0.0143416
0.0100589
0.00686399
0.00498194
0.00416725
0.00401523
0.00387345
0.00322129
0.00168733
-0.000726098
-0.00373443
-0.00681893
-0.00938799
-0.0109291
-0.0111221
-0.00996174
-0.00777335
-0.00502024
-0.00224493
7.51116e-5
0.00162002
0.00240167
0.00250275
0.0021129
0.00133446
0.000164615
-0.00145356
-0.00360322
-0.00620803
-0.00910924
-0.0119531
-0.0144117
-0.0161786
-0.01706
-0.0171244
-0.0164872
-0.0154245
-0.0141832
-0.0129792
-0.0117904
-0.0105165
-0.00873321
-0.00583131
-0.00126288
0.00523128
0.0135459
0.0231969
0.0332451
0.0428353
0.0511918
0.0579701
0.0632515
0.0674751
0.0711286
0.0746516
0.0781296
0.0813489
0.0838191
0.0851319
0.0849439
0.0833165
0.0804083
0.0765852
0.0721963
0.0676142
0.0633686
0.0602384
0.0591244
0.0608373
0.0655237
0.07236
0.0796221
0.0849871
0.0863931
0.0826455
0.0738218
0.0611445
0.0463302
0.0310865
0.0165365
0.00310393
-0.00924101
-0.0206177
-0.0308388
-0.0395351
-0.0461562
-0.0503582
-0.0521424
-0.0519972
-0.0507453
-0.0492846
-0.0483779
-0.0484456
-0.0494274
-0.0509546
-0.052475
-0.0534268
-0.0535802
-0.0528749
-0.0514276
-0.0495715
-0.0475994
-0.0459529
-0.0450795
-0.0459009
-0.0497146
-0.0582664
-0.0732184
-0.0957876
-0.125977
-0.161845
-0.198874
-0.229856
-0.245561
-0.235676
-0.190057
-0.100272
0.0381766
0.223363
0.444425
0.680154
0.899664
1.06695
1.14876
1.1241
0.991925
0.773806
0.509168
0.244924
0.0223797
-0.133081
-0.216375
-0.240136
-0.226902
-0.19978
-0.17557
-0.161852
-0.158529
-0.161536
-0.166237
-0.169556
-0.170387
-0.16903
-0.166295
-0.162786
-0.158786
-0.15459
-0.150428
-0.146727
-0.143839
-0.141973
-0.141064
-0.14083
-0.140756
-0.140463
-0.139658
-0.138251
-0.136553
-0.134868
-0.133566
-0.132882
-0.132815
-0.133143
-0.133543
-0.133661
-0.133251
-0.132244
-0.13061
-0.128448
-0.125908
-0.123097
-0.120123
-0.117048
-0.113925
-0.110729
-0.107491
-0.104306
-0.101383
-0.0989965
-0.0975256
-0.0970919
-0.0976555
-0.0989006
-0.100251
-0.101105
-0.10105
-0.100029
-0.0984232
-0.0968798
-0.0961122
-0.0966089
-0.0985307
-0.10151
-0.104886
-0.107864
-0.109785
-0.110292
-0.109432
-0.107504
-0.104999
-0.102448
-0.100291
-0.0988294
-0.0982279
-0.0985088
-0.0995899
-0.101302
-0.103431
-0.105791
-0.10815
-0.110271
-0.111991
-0.11312
-0.113496
-0.112901
-0.11096
-0.10712
-0.100731
-0.0912099
-0.0783398
-0.0624066
-0.0442435
-0.025175
-0.00654884
0.0103977
0.0249645
0.0369702
0.0466519
0.0544944
0.0610593
0.0668382
0.072235
0.0774764
0.0825766
0.0873646
0.0914465
0.0943743
0.0959234
0.0960747
0.0951759
0.0936964
0.0921874
0.0909115
0.0899365
0.0890405
0.0879799
0.0865359
0.0846244
0.0823387
0.079704
0.0767979
0.0736512
0.0703639
0.0671688
0.0643123
0.0621422
0.0607845
0.0602329
0.0601686
0.0600739
0.0593476
0.0576484
0.0549429
0.0515428
0.0479227
0.0444144
0.041153
0.037831
0.0339784
0.0292368
0.0236021
0.017528
0.011857
0.00748181
0.00491069
0.00414273
0.00475444
0.00595428
0.00693834
0.00714724
0.00636227
0.00469347
0.00252445
0.000272812
-0.00166164
-0.00309365
-0.00396239
-0.00451276
-0.00509817
-0.00601137
-0.00745856
-0.00940327
-0.0116741
-0.013997
-0.0161985
-0.018284
-0.0204064
-0.0227198
-0.0252677
-0.0280477
-0.0308192
-0.0333326
-0.0354414
-0.0371105
-0.0382767
-0.038935
-0.0388973
-0.0380435
-0.036163
-0.033179
-0.0292967
-0.0248721
-0.0206244
-0.0172172
-0.0151613
-0.014759
-0.0159197
-0.0182767
-0.0212375
-0.0242326
-0.0268799
-0.0289118
-0.0300959
-0.0301106
-0.0286441
-0.0251963
-0.0197196
-0.0124773
-0.00425894
0.00406676
0.0116812
0.0182176
0.0238
0.0290131
0.0345436
0.0408877
0.0481931
0.0561137
0.0640411
0.0710959
0.0763609
0.0790597
0.0787198
0.0753194
0.0694151
0.0620779
0.0548203
0.0490804
0.0460121
0.0459399
0.0482773
0.0513768
0.0531684
0.0515375
0.0450947
0.0335937
0.0178984
-0.000167907
-0.0184936
-0.0351619
-0.049007
-0.0595732
-0.0670593
-0.0720599
-0.0753092
-0.0774263
-0.0790692
-0.0806864
-0.0825504
-0.0845172
-0.0860496
-0.0864831
-0.0852111
-0.0820215
-0.0773401
-0.0720719
-0.0672999
-0.063993
-0.0627423
-0.0636627
-0.0666056
-0.0715132
-0.078587
-0.088481
-0.102078
-0.120316
-0.143749
-0.172103
-0.203697
-0.235339
-0.262523
-0.280162
-0.283034
-0.266768
-0.228006
-0.164266
-0.073514
0.0460719
0.195276
0.371954
0.568723
0.770794
0.95533
1.09432
1.1604
1.13447
1.01277
0.810125
0.557821
0.296053
0.0635254
-0.112267
-0.220403
-0.266485
-0.267641
-0.244785
-0.215956
-0.19236
-0.178121
-0.172447
-0.172359
-0.174781
-0.177553
-0.179498
-0.180111
-0.179061
-0.176412
-0.172735
-0.168745
-0.16537
-0.163216
-0.162453
-0.162792
-0.16376
-0.164943
-0.166082
-0.167058
-0.167825
-0.168327
-0.168391
-0.167673
-0.165992
-0.16319
-0.159246
-0.154379
-0.148879
-0.143176
-0.137773
-0.1332
-0.129797
-0.127692
-0.126613
-0.126028
-0.125277
-0.123989
-0.122058
-0.119898
-0.118119
-0.117308
-0.117612
-0.118648
-0.119568
-0.11956
-0.118136
-0.115372
-0.111955
-0.10886
-0.106885
-0.106359
-0.107054
-0.108367
-0.109445
-0.109728
-0.109013
-0.107608
-0.106234
-0.105627
-0.106509
-0.10909
-0.113067
-0.117652
-0.121958
-0.125188
-0.127031
-0.127772
-0.128192
-0.129241
-0.131722
-0.13601
-0.141943
-0.148901
-0.156016
-0.162265
-0.166938
-0.169589
-0.170192
-0.16887
-0.165927
-0.161316
-0.154685
-0.145344
-0.132697
-0.116556
-0.0973847
-0.076551
-0.0559333
-0.0374876
-0.0224696
-0.011152
-0.00273498
0.0043986
0.0120239
0.0213452
0.0326038
0.0450934
0.0575111
0.0684495
0.0770635
0.0830954
0.0871071
0.0898461
0.0920367
0.0940564
0.0958904
0.0972914
0.097992
0.0978343
0.0970317
0.0957947
0.0943673
0.0928869
0.0912296
0.0892447
0.0866789
0.0834313
0.0796992
0.0758459
0.0723465
0.0696527
0.0679215
0.066935
0.0662165
0.0651528
0.063295
0.0605012
0.0569655
0.0531612
0.0496162
0.0466506
0.0443875
0.0427564
0.0415968
0.0407644
0.0400541
0.0393446
0.0384001
0.0370181
0.0349498
0.0320504
0.0282629
0.0237946
0.0190609
0.0146858
0.0114069
0.00974182
0.00992666
0.0118647
0.0148755
0.0180995
0.0206771
0.0219111
0.0214168
0.0191582
0.0153816
0.0105981
0.0055131
0.00100674
-0.00212852
-0.00344576
-0.00300022
-0.00148192
0.000121715
0.000790594
3.54358e-5
-0.00208287
-0.00480936
-0.00725465
-0.00871034
-0.00885507
-0.00798579
-0.00654572
-0.00499574
-0.00365948
-0.00253937
-0.00145126
-0.000430687
0.000408457
0.000841559
0.000600432
-0.000533479
-0.00263842
-0.00558089
-0.00913965
-0.0128574
-0.0161046
-0.0180729
-0.0178275
-0.0147132
-0.00845359
0.000567427
0.0113061
0.0223895
0.0324247
0.0404925
0.0464566
0.0508797
0.0547848
0.0592808
0.0649169
0.0715145
0.0781383
0.0834816
0.0864035
0.086329
0.0834779
0.0786152
0.0727061
0.0665387
0.0605537
0.0550006
0.0501837
0.0466634
0.0450647
0.0458059
0.0485393
0.0520601
0.0545596
0.0540491
0.0491785
0.0396594
0.0262719
0.01073
-0.0049133
-0.0188953
-0.0298726
-0.0372234
-0.0409977
-0.0416668
-0.0401054
-0.0374077
-0.0347813
-0.0331369
-0.0330525
-0.0346708
-0.0376285
-0.0414166
-0.0453377
-0.0489103
-0.0518471
-0.0540313
-0.0553935
-0.0558889
-0.0554306
-0.0539798
-0.0516617
-0.0489351
-0.0467937
-0.0468319
-0.0509812
-0.0612283
-0.0789046
-0.103957
-0.134296
-0.165322
-0.189965
-0.199447
-0.18401
-0.134033
-0.0414792
0.097786
0.281241
0.497037
0.722553
0.925879
1.07122
1.12755
1.07808
0.92689
0.699675
0.437642
0.186292
-0.0169571
-0.151629
-0.216776
-0.227195
-0.205283
-0.172684
-0.144321
-0.126596
-0.119246
-0.118707
-0.120969
-0.123296
-0.124698
-0.125399
-0.125912
-0.126675
-0.127801
-0.129202
-0.130699
-0.132024
-0.132897
-0.133157
-0.132631
-0.131363
-0.129481
-0.127241
-0.124897
-0.122655
-0.120589
-0.118603
-0.11659
-0.1144
-0.112003
-0.109499
-0.106973
-0.104529
-0.102248
-0.100102
-0.09805
-0.0959968
-0.0939222
-0.0917749
-0.0896577
-0.0877319
-0.086185
-0.0852746
-0.0851457
-0.0857422
-0.0869789
-0.0885412
-0.0901411
-0.0915499
-0.0926071
-0.0931858
-0.0932683
-0.0928576
-0.0919665
-0.0906961
-0.089241
-0.087752
-0.0864772
-0.0855502
-0.0849087
-0.0845105
-0.084124
-0.0836385
-0.083053
-0.0825317
-0.0823098
-0.0826736
-0.0837522
-0.085495
-0.0876867
-0.090063
-0.0924524
-0.0949092
-0.097649
-0.100919
-0.104939
-0.109783
-0.115225
-0.12091
-0.126274
-0.130633
-0.13329
-0.13352
-0.130625
-0.124182
-0.114183
-0.101071
-0.0860241
-0.0705178
-0.0561981
-0.0444897
-0.0361809
-0.0313302
-0.0292742
-0.0288389
-0.0287178
-0.0277369
-0.0250002
-0.0200354
-0.012737
-0.00328317
0.00791833
0.0202469
0.0330345
0.0455797
0.0573029
0.0677496
0.0768162
0.0845116
0.0910219
0.0965736
0.101295
0.105242
0.108399
0.110721
0.112258
0.113234
0.113823
0.114301
0.114834
0.115441
0.116068
0.116626
0.116979
0.117112
0.117044
0.116812
0.116476
0.116125
0.115702
0.115176
0.114421
0.113183
0.111247
0.108438
0.10473
0.100301
0.0955847
0.0910768
0.0873386
0.0847101
0.0832883
0.0827371
0.0825447
0.082045
0.0806483
0.0781341
0.0745984
0.0704029
0.0661736
0.0623946
0.0594473
0.0574779
0.0564425
0.0561258
0.0563167
0.056735
0.0570063
0.0568778
0.0560348
0.054358
0.0518885
0.0488767
0.0456636
0.0425954
0.0398271
0.0373856
0.0350807
0.0327185
0.0302215
0.0276276
0.0250876
0.0227866
0.0207757
0.0191044
0.0176195
0.0162616
0.0150535
0.0140308
0.0133171
0.0130263
0.0131095
0.0134578
0.0138896
0.0141359
0.0139819
0.013287
0.0120736
0.010538
0.00903902
0.00789129
0.00740841
0.00762549
0.0083861
0.00923571
0.0095171
0.00872032
0.00656077
0.00311453
-0.000980423
-0.00510311
-0.0085225
-0.010817
-0.012004
-0.0124284
-0.0125421
-0.0126095
-0.0124684
-0.0115309
-0.00906468
-0.00443598
0.00261023
0.0118042
0.0223238
0.0332483
0.0436655
0.0529861
0.0610394
0.0680278
0.0743056
0.0802579
0.0860257
0.0913501
0.0957761
0.0987157
0.099565
0.0981133
0.0944441
0.0890009
0.0824177
0.0754253
0.0686861
0.0628506
0.0586696
0.0568244
0.0578609
0.0616523
0.0671432
0.0723439
0.0748962
0.072669
0.0645593
0.0509938
0.0336483
0.0150952
-0.00222103
-0.0166619
-0.0276556
-0.0355756
-0.0413612
-0.0460089
-0.0502718
-0.0544541
-0.058498
-0.0620966
-0.0649075
-0.0666599
-0.0673399
-0.067092
-0.066201
-0.0649949
-0.063778
-0.0625297
-0.0612631
-0.0598919
-0.058443
-0.0571781
-0.0568343
-0.0587277
-0.0645164
-0.0761488
-0.0950739
-0.121766
-0.154866
-0.190707
-0.223522
-0.246013
-0.250596
-0.230854
-0.182567
-0.104128
0.00396161
0.139922
0.301682
0.486536
0.689978
0.903394
1.11187
1.293
1.41917
1.46297
1.40546
1.24371
0.995002
0.69474
0.388232
0.119031
-0.0822807
-0.204559
-0.256056
-0.258311
-0.2367
-0.212167
-0.196609
-0.192834
-0.197764
-0.206344
-0.214515
-0.220255
-0.223453
-0.224801
-0.225063
-0.224596
-0.223523
-0.221943
-0.219985
-0.217737
-0.215323
-0.212759
-0.209989
-0.207042
-0.204027
-0.201142
-0.198628
-0.196798
-0.195721
-0.195414
-0.195602
-0.195925
-0.195963
-0.195388
-0.193979
-0.191757
-0.189007
-0.186085
-0.18334
-0.181096
-0.17944
-0.178295
-0.177427
-0.176523
-0.175358
-0.173811
-0.171868
-0.169633
-0.167339
-0.165181
-0.163384
-0.16206
-0.161154
-0.160441
-0.159771
-0.15891
-0.157943
-0.157106
-0.156705
-0.1571
-0.158455
-0.160731
-0.163613
-0.166651
-0.169476
-0.171812
-0.173571
-0.174799
-0.175575
-0.175911
-0.175797
-0.175241
-0.174334
-0.173335
-0.172617
-0.172612
-0.173547
-0.175335
-0.177554
-0.179538
-0.180569
-0.180165
-0.17808
-0.17429
-0.168907
-0.161816
-0.152828
-0.141681
-0.128221
-0.112716
-0.0959258
-0.078922
-0.0629597
-0.0490032
-0.0375066
-0.0284647
-0.0213242
-0.015362
-0.00988263
-0.00427678
0.00178805
0.00848947
0.0158617
0.0237862
0.0320927
0.0405892
0.04914
0.0576784
0.066109
0.0742687
0.0818305
0.0883434
0.0933331
0.0965395
0.0980233
0.098186
0.0976299
0.0968668
0.0963113
0.0960486
0.0958371
0.0955093
0.09484
0.0938117
0.0926194
0.091468
0.0905653
0.0899542
0.0896308
0.0894528
0.0892387
0.0888936
0.0882977
0.0873906
0.0861804
0.0846409
0.0828605
0.0809299
0.0790381
0.0773507
0.075994
0.0748958
0.073843
0.0725526
0.0706744
0.0679596
0.0644158
0.0601325
0.0554213
0.0506409
0.0460898
0.0419736
0.0384573
0.0356445
0.0334852
0.0319297
0.0308593
0.0300546
0.0293103
0.0284266
0.0273044
0.0259085
0.0242353
0.0222092
0.019699
0.0166276
0.0129714
0.0088776
0.00466805
0.000672386
-0.00279897
-0.00560326
-0.00777174
-0.00932476
-0.010314
-0.0106174
-0.0100839
-0.00868431
-0.00659773
-0.00428547
-0.00244865
-0.00169967
-0.00246835
-0.00478144
-0.0082497
-0.0121849
-0.0159312
-0.0189389
-0.0210521
-0.0223444
-0.0229847
-0.0232177
-0.0231195
-0.0227064
-0.0219358
-0.0207611
-0.0192905
-0.017667
-0.0160859
-0.0147881
-0.0138357
-0.0132978
-0.0131494
-0.0132804
-0.0135453
-0.0137522
-0.0135767
-0.0126384
-0.010558
-0.00694599
-0.00160241
0.00533843
0.0134895
0.0221782
0.0306826
0.0383707
0.0448464
0.0501589
0.0545756
0.0585769
0.0627103
0.0674374
0.0729475
0.0790985
0.0853435
0.0909492
0.0950432
0.0968992
0.096075
0.0925797
0.0867936
0.0794593
0.071554
0.0641953
0.0586215
0.0558041
0.0562032
0.0595083
0.0643843
0.0687367
0.0703023
0.0673084
0.0590094
0.0459299
0.0296869
0.0124765
-0.00364576
-0.017158
-0.0273609
-0.0342456
-0.0381571
-0.0397614
-0.0397476
-0.0388493
-0.0376898
-0.036761
-0.0362904
-0.0363668
-0.0368184
-0.0374596
-0.0382432
-0.0391563
-0.0403812
-0.0420964
-0.0443815
-0.0470833
-0.0497794
-0.0520258
-0.0532658
-0.053336
-0.052469
-0.0515816
-0.0523428
-0.0569793
-0.0677385
-0.0863441
-0.113244
-0.146935
-0.18338
-0.215739
-0.234879
-0.230265
-0.191123
-0.107912
0.0253779
0.208473
0.432036
0.675733
0.908864
1.0943
1.1964
1.19089
1.07304
0.861345
0.593778
0.317947
0.0778476
-0.0972483
-0.198277
-0.234983
-0.228633
-0.202898
-0.176423
-0.158989
-0.15234
-0.15348
-0.158095
-0.162736
-0.165734
-0.166759
-0.166233
-0.164684
-0.162458
-0.159869
-0.15721
-0.154733
-0.15244
-0.150263
-0.148036
-0.145606
-0.14306
-0.140719
-0.138978
-0.138185
-0.138524
-0.139738
-0.141249
-0.142407
-0.142529
-0.141323
-0.138869
-0.135524
-0.131825
-0.128286
-0.125152
-0.122574
-0.120548
-0.119001
-0.11787
-0.117081
-0.116547
-0.116065
-0.115552
-0.114824
-0.113926
-0.112974
-0.112074
-0.111295
-0.1107
-0.110243
-0.109923
-0.109687
-0.109585
-0.109522
-0.109448
-0.109229
-0.108718
-0.107834
-0.106552
-0.104881
-0.102965
-0.10096
-0.0990565
-0.0975323
-0.0966588
-0.0966016
-0.0973624
-0.0988088
-0.100545
-0.102282
-0.103756
-0.104956
-0.106063
-0.107408
-0.109255
-0.111817
-0.114999
-0.118491
-0.12184
-0.124554
-0.126121
-0.126073
-0.123983
-0.11948
-0.11225
-0.102272
-0.0897971
-0.0754998
-0.0604617
-0.0458699
-0.0328431
-0.0220567
-0.0136399
-0.00709414
-0.00152163
0.00404092
0.0103709
0.017845
0.0264235
0.035653
0.044982
0.0538468
0.0618368
0.0686622
0.0742165
0.0784598
0.0814994
0.0835848
0.0849539
0.0859417
0.0867974
0.0877694
0.0890678
0.0907889
0.0930122
0.0957401
0.098831
0.101926
0.10465
0.106571
0.107282
0.106581
0.104493
0.101314
0.0974427
0.0934481
0.0897054
0.0865336
0.0839193
0.0815545
0.0790209
0.0759534
0.0722206
0.0680029
0.0638999
0.0606258
0.0587929
0.0587137
0.0600435
0.0620764
0.0637948
0.06422
0.0627769
0.0594197
0.0545582
0.0488604
0.043027
0.0375823
0.032836
0.0289065
0.0257882
0.0234639
0.0218959
0.0208543
0.0200441
0.0190919
0.0176031
0.0153205
0.0122675
0.00870077
0.00512123
0.00199362
-0.000244621
-0.00147996
-0.00182784
-0.00165703
-0.00137422
-0.00134105
-0.00176336
-0.00256459
-0.00364956
-0.00481028
-0.00585878
-0.00673799
-0.00750187
-0.00830168
-0.00930048
-0.0107903
-0.0129078
-0.0156695
-0.0189819
-0.0225741
-0.026068
-0.0290766
-0.0313082
-0.0325599
-0.0329124
-0.0324188
-0.0312963
-0.0297453
-0.0279291
-0.02593
-0.023825
-0.0217743
-0.0199023
-0.0184469
-0.0176986
-0.0178495
-0.0190279
-0.0210793
-0.0236507
-0.026185
-0.0280967
-0.0287831
-0.0278023
-0.0248635
-0.0198817
-0.0129849
-0.00447465
0.00517661
0.0153015
0.0251463
0.0341072
0.0417156
0.0479857
0.0532636
0.0581126
0.0630058
0.0680649
0.073063
0.0773504
0.0801598
0.0809802
0.0796779
0.0765191
0.0721132
0.067164
0.0621756
0.0574493
0.0532002
0.0496643
0.0472253
0.0464792
0.0478287
0.0511683
0.0556374
0.0597556
0.06171
0.0601013
0.0543458
0.0448646
0.0328344
0.0196693
0.00641769
-0.00637261
-0.0185656
-0.0301367
-0.0407837
-0.0498418
-0.056634
-0.0606462
-0.0619592
-0.0612653
-0.0596689
-0.0582884
-0.0579433
-0.0589232
-0.0610131
-0.0637566
-0.0666051
-0.0691661
-0.0712414
-0.0728571
-0.0739873
-0.0745553
-0.0743349
-0.0731129
-0.0708764
-0.0680002
-0.0653812
-0.0645009
-0.0671844
-0.0751182
-0.0895797
-0.11099
-0.138803
-0.171259
-0.205519
-0.237937
-0.264507
-0.281525
-0.286153
-0.276494
-0.251297
-0.208819
-0.145687
-0.0567054
0.0639712
0.219696
0.40726
0.613285
0.813547
0.976217
1.06908
1.06868
0.968567
0.782739
0.542942
0.290472
0.0649925
-0.105317
-0.209156
-0.251837
-0.250044
-0.22434
-0.192567
-0.165988
-0.148899
-0.140521
-0.137873
-0.137913
-0.138752
-0.139535
-0.140282
-0.141175
-0.142376
-0.143863
-0.145452
-0.146866
-0.147787
-0.14783
-0.146747
-0.144425
-0.140875
-0.136453
-0.131628
-0.127154
-0.12363
-0.121515
-0.120906
-0.121462
-0.122492
-0.123265
-0.12309
-0.121751
-0.119271
-0.116022
-0.11244
-0.108964
-0.105901
-0.103462
-0.101767
-0.100775
-0.100376
-0.1003
-0.100273
-0.0999983
-0.0992966
-0.0981838
-0.096808
-0.0954015
-0.0941212
-0.0929407
-0.0917711
-0.0905939
-0.0894551
-0.0887002
-0.0887823
-0.0899121
-0.0921531
-0.0950865
-0.0980896
-0.10045
-0.101668
-0.10171
-0.100813
-0.099451
-0.0980395
-0.0968119
-0.0958226
-0.0950088
-0.0942074
-0.0934129
-0.0926692
-0.0920905
-0.0919139
-0.0924255
-0.0939009
-0.0967035
-0.101161
-0.107397
-0.115288
-0.124095
-0.132691
-0.139656
-0.143355
-0.142531
-0.136553
-0.125573
-0.110614
-0.0933227
-0.0757277
-0.0597851
-0.0470377
-0.0383886
-0.0339212
-0.0329754
-0.0343196
-0.0362847
-0.0372322
-0.0357222
-0.0309852
-0.0230086
-0.0125907
-0.000966442
0.0104932
0.0207437
0.0294527
0.0367787
0.0433748
0.0499294
0.0567227
0.063642
0.0702061
0.0757928
0.0798938
0.0822864
0.0830566
0.0826271
0.081446
0.0799802
0.0785917
0.0774901
0.0767812
0.076529
0.0768136
0.0775754
0.0787991
0.0803071
0.0817581
0.0827037
0.0827718
0.081835
0.0799641
0.0775744
0.0752154
0.0732655
0.0718659
0.0707628
0.0694163
0.0671992
0.063683
0.0588409
0.0531689
0.0471953
0.0416099
0.0368512
0.033005
0.0298423
0.0270818
0.0244668
0.0219419
0.0196678
0.0178557
0.0167063
0.0163308
0.0167406
0.0177371
0.018951
0.0198797
0.0199826
0.0188039
0.0162601
0.0127285
0.00900634
0.00614749
0.00501883
0.00586362
0.00813941
0.0105871
0.0118966
0.0110057
0.00765154
0.00239137
-0.00361216
-0.00917348
-0.0134213
-0.0160993
-0.0173988
-0.0178619
-0.017987
-0.0182907
-0.0191539
-0.0209299
-0.0237173
-0.0274315
-0.0316399
-0.0356062
-0.0385223
-0.0398062
-0.0391848
-0.036908
-0.0336142
-0.0299031
-0.0263099
-0.0231474
-0.0205703
-0.0186595
-0.0175823
-0.0174411
-0.0183402
-0.0201655
-0.0226172
-0.0252652
-0.0276855
-0.0295268
-0.0306488
-0.0308764
-0.0300542
-0.0278012
-0.0238648
-0.0181355
-0.0109881
-0.00320834
0.0041877
0.0103283
0.0148703
0.0182398
0.0214376
0.0256649
0.0318987
0.040454
0.0507066
0.0614104
0.0709905
0.0779964
0.0816177
0.0817111
0.0787659
0.0736914
0.0675398
0.0612566
0.0555995
0.0510752
0.0481378
0.0469663
0.0473758
0.0486563
0.04963
0.0487517
0.0444828
0.0360652
0.023649
0.00847383
-0.00730254
-0.0213709
-0.0319093
-0.0381044
-0.0402614
-0.039553
-0.0374652
-0.0353598
-0.034198
-0.0343653
-0.0359069
-0.0385616
-0.0420321
-0.0460035
-0.0501183
-0.0539129
-0.0571948
-0.0597747
-0.0617114
-0.0631956
-0.0644441
-0.0655482
-0.0663369
-0.0665133
-0.0657655
-0.0638454
-0.0608826
-0.0574521
-0.0547518
-0.0546509
-0.0591632
-0.0702387
-0.089263
-0.116004
-0.14799
-0.180071
-0.204392
-0.211217
-0.189798
-0.129773
-0.0234024
0.131554
0.32914
0.55267
0.774656
0.96015
1.07372
1.08893
0.997102
0.811549
0.565533
0.303521
0.06906
-0.106651
-0.21112
-0.250401
-0.243282
-0.212732
-0.178104
-0.151071
-0.135296
-0.12913
-0.128836
-0.130952
-0.133342
-0.135298
-0.136846
-0.138124
-0.139114
-0.139823
-0.140322
-0.140812
-0.141388
-0.142008
-0.142458
-0.142327
-0.141139
-0.138585
-0.134682
-0.129784
-0.124528
-0.119482
-0.115171
-0.111752
-0.108986
-0.106423
-0.10367
-0.100459
-0.0969108
-0.0933757
-0.0903574
-0.0881905
-0.0870613
-0.0868271
-0.0873107
-0.08826
-0.089558
-0.0911187
-0.0929767
-0.0950987
-0.09739
-0.099662
-0.101705
-0.103323
