-0.0583721
-0.0502414
-0.0444158
-0.043263
-0.0489825
-0.0630798
-0.0861497
-0.117372
-0.154039
-0.191238
-0.221739
-0.236341
-0.22454
-0.175764
-0.0815731
0.0613805
0.248141
0.463119
0.679652
0.863505
0.980013
1.00332
0.924767
0.756895
0.531012
0.288958
0.0714255
-0.0926842
-0.191953
-0.232287
-0.230933
-0.208744
-0.183034
-0.164028
-0.154617
-0.152859
-0.155013
-0.157659
-0.158832
-0.158172
-0.156137
-0.153486
-0.150777
-0.148406
-0.14638
-0.144717
-0.143342
-0.142289
-0.141815
-0.142258
-0.143897
-0.146666
-0.15011
-0.153372
-0.155597
-0.155946
-0.154121
-0.150266
-0.144947
-0.138926
-0.132985
-0.127779
-0.123652
-0.120724
-0.118906
-0.117901
-0.117427
-0.117152
-0.116864
-0.116467
-0.116052
-0.115656
-0.115313
-0.114858
-0.114038
-0.112648
-0.110528
-0.107926
-0.105441
-0.103704
-0.103177
-0.104062
-0.105878
-0.107845
-0.109157
-0.109145
-0.107716
-0.105211
-0.102257
-0.0994103
-0.0970022
-0.0949813
-0.0931597
-0.0913593
-0.0895329
-0.0878047
-0.0864739
-0.0857981
-0.0859648
-0.0869493
-0.0887006
-0.0911369
-0.0943313
-0.0982949
-0.103001
-0.108345
-0.114047
-0.119731
-0.125123
-0.129861
-0.133656
-0.136167
-0.136889
-0.135156
-0.130348
-0.122191
-0.110892
-0.0973636
-0.0828231
-0.0685377
-0.0554033
-0.0437551
-0.033246
-0.0232477
-0.013017
-0.00224124
0.00914634
0.0209175
0.0328436
0.0446759
0.0564661
0.0681286
0.0793535
0.0896382
0.0984175
0.105086
0.109518
0.111993
0.113245
0.114157
0.115416
0.11742
0.120054
0.122846
0.125198
0.126611
0.126861
0.12605
0.124588
0.122931
0.121481
0.120491
0.119946
0.11975
0.119744
0.119895
0.120025
0.119938
0.119249
0.117436
0.113993
0.108719
0.101762
0.0938273
0.085906
0.0790548
0.074118
0.0713756
0.0705685
0.071071
0.0721178
0.0729554
0.0731458
0.0725702
0.0712639
0.0693719
0.0670734
0.0643857
0.0614147
0.058202
0.0548377
0.0514428
0.0482037
0.0452201
0.0425709
0.0402236
0.0380794
0.0359183
0.0336166
0.0310924
0.0284459
0.0258545
0.0235357
0.0216137
0.0200914
0.0188162
0.0175363
0.0161395
0.0146691
0.0133373
0.0123943
0.0121278
0.0125462
0.0135963
0.0149966
0.0165617
0.0180187
0.0192331
0.0200665
0.0203299
0.0198179
0.0183311
0.0157515
0.0122313
0.00810326
0.00390566
9.26304e-5
-0.00294097
-0.00504944
-0.0063371
-0.00698195
-0.00714473
-0.0068489
-0.00589515
-0.0039329
-0.000555564
0.00450316
0.0112036
0.0191865
0.0278554
0.0365876
0.0447966
0.0523889
0.0595046
0.0664162
0.0734039
0.0803169
0.0866206
0.0915949
0.0944919
0.0948924
0.092844
0.0889738
0.0841911
0.0794221
0.0754381
0.0726421
0.0712733
0.0715189
0.0737121
0.0781538
0.0847266
0.0927568
0.100647
0.106286
0.107494
0.102763
0.0917374
0.0752533
0.055243
0.0339867
0.0135886
-0.00437476
-0.018901
-0.0296897
-0.0368425
-0.0408434
-0.0424975
-0.0426783
-0.0423054
-0.041992
-0.0419966
-0.0422606
-0.0425316
-0.0424613
-0.04194
-0.0409585
-0.0395629
-0.0378942
-0.0361205
-0.0344058
-0.0331342
-0.0332893
-0.0363677
-0.0442591
-0.0588152
-0.0811168
-0.110922
-0.145809
-0.180793
-0.208387
-0.219252
-0.20292
-0.149002
-0.0491141
0.100707
0.296809
0.525263
0.760889
0.969374
1.11326
1.16137
1.09804
0.92958
0.684168
0.405272
0.139824
-0.0739957
-0.215291
-0.28305
-0.29207
-0.26525
-0.225193
-0.188168
-0.162179
-0.148456
-0.144122
-0.14505
-0.147765
-0.150147
-0.151314
-0.151286
-0.150299
-0.14866
-0.146623
-0.144506
-0.142543
-0.140976
-0.139882
-0.139221
-0.138791
-0.138314
-0.13738
-0.135763
-0.133486
-0.130759
-0.128019
-0.125828
-0.124494
-0.124194
-0.124805
-0.125986
-0.127334
-0.128379
-0.128738
-0.128086
-0.126174
-0.122938
-0.118428
-0.112894
-0.106891
-0.101001
-0.0958137
-0.0918417
-0.0893424
-0.0883736
-0.0887745
-0.0902752
-0.0925039
-0.0949956
-0.0973261
-0.0991541
-0.100275
-0.100555
-0.100049
-0.0988801
-0.0972319
-0.095239
-0.0929802
-0.0905796
-0.0880559
-0.0854543
-0.0829815
-0.0807073
-0.0789223
-0.077921
-0.0778684
-0.0788075
-0.0806687
-0.0830743
-0.0856547
-0.0880897
-0.0902094
-0.0920619
-0.0939123
-0.0961121
-0.09888
-0.102261
-0.106003
-0.109663
-0.112726
-0.114542
-0.114559
-0.112215
-0.106989
-0.0985814
-0.0869459
-0.0724726
-0.0559046
-0.0383736
-0.0210043
-0.00477768
0.00976939
0.0224862
0.0337248
0.043972
0.0537933
0.0636461
0.0736601
0.0837217
0.0935078
0.102581
0.110581
0.117332
0.122749
0.126941
0.130015
0.131994
0.132854
0.132497
0.130815
0.127901
0.124007
0.119571
0.115186
0.111417
0.1087
0.107229
0.106871
0.107315
0.108097
0.10878
0.109074
0.108913
0.108306
0.107317
0.105994
0.104316
0.102241
0.0997236
0.0968397
0.0936647
0.0904034
0.0871233
0.0837672
0.0801724
0.0762979
0.072111
0.0678293
0.0638526
0.0605942
0.0583154
0.0569473
0.0561816
0.0555732
0.054671
0.0531647
0.050996
0.0483288
0.0452465
0.0419433
0.0385501
0.0351471
0.0319554
0.0291355
0.0268009
0.0249551
0.0234321
0.0218657
0.0199292
0.017375
0.0142703
0.0108441
0.0074576
0.0045071
0.00234331
0.00102595
0.000572619
0.000899151
0.00182416
0.00317399
0.00472486
0.00627231
0.00761457
0.00855905
0.00907638
0.00907883
0.00866476
0.0079413
0.00691874
0.00568069
0.00422309
0.00244387
0.00024569
-0.00245716
-0.00562804
-0.00900123
-0.0122288
-0.0149157
-0.0167915
-0.0178129
-0.018194
-0.0181033
-0.0175714
-0.0163461
-0.0137069
-0.00887245
-0.00131518
0.00895713
0.0211684
0.0340172
0.0459758
0.0559651
0.0635745
0.0692065
0.073916
0.0787684
0.084374
0.0906072
0.0965542
0.101017
0.102814
0.101384
0.0969771
0.0903352
0.0827974
0.0757462
0.0703939
0.0676395
0.0679864
0.0714953
0.0774802
0.0846001
0.0908934
0.0941724
0.0926948
0.0855256
0.0729523
0.0564388
0.0380814
0.0200103
0.00383417
-0.00967585
-0.0204401
-0.0287594
-0.0350418
-0.0395998
-0.0425832
-0.0442384
-0.044855
-0.0447418
-0.044372
-0.0441072
-0.0441968
-0.0446417
-0.045394
-0.0462676
-0.0471192
-0.04791
-0.0484474
-0.0486471
-0.0485311
-0.0481816
-0.0477852
-0.0480295
-0.0501658
-0.0559524
-0.0673937
-0.0861934
-0.112954
-0.14632
-0.181761
-0.211504
-0.224792
-0.208671
-0.150183
-0.0393802
0.127018
0.341873
0.585385
0.825647
1.02336
1.1403
1.14995
1.04614
0.846364
0.588294
0.319476
0.0843039
-0.087445
-0.186249
-0.221347
-0.213683
-0.186874
-0.159534
-0.141683
-0.135119
-0.13687
-0.142451
-0.148232
-0.152426
-0.154808
-0.155991
-0.156619
-0.15711
-0.157582
-0.158038
-0.158268
-0.157993
-0.157008
-0.15515
-0.152418
-0.149037
-0.145412
-0.141907
-0.138879
-0.136373
-0.134325
-0.132593
-0.130902
-0.129158
-0.127295
-0.125452
-0.123729
-0.122268
-0.12107
-0.12016
-0.119515
-0.11902
-0.118631
-0.11831
-0.118025
-0.117658
-0.11719
-0.116573
-0.115753
-0.114741
-0.113508
-0.112076
-0.11034
-0.108147
-0.105283
-0.101736
-0.0976043
-0.0932117
-0.089024
-0.0853608
-0.0825614
-0.0806108
-0.079403
-0.0788536
-0.0789218
-0.079655
-0.081058
-0.0830528
-0.0853421
-0.0875048
-0.0891761
-0.0901009
-0.0903848
-0.0903925
-0.0906331
-0.0915598
-0.0934356
-0.0961733
-0.099424
-0.102674
-0.105423
-0.107384
-0.108423
-0.108565
-0.107847
-0.106304
-0.10363
-0.0994924
-0.0934937
-0.0851953
-0.0744256
-0.0613654
-0.046486
-0.0305969
-0.0146798
0.000336148
0.0137962
0.0252382
0.0347298
0.0426635
0.049596
0.0561754
0.0629174
0.0700271
0.0774992
0.0849957
0.0920559
0.0982181
0.103078
0.106427
0.108272
0.108885
0.108575
0.107739
0.106722
0.105667
0.104596
0.103453
0.102045
0.100329
0.0983099
0.095967
0.0933679
0.0905678
0.0875987
0.0845071
0.081493
0.0786279
0.07601
0.0736851
0.0715314
0.0695129
0.0675397
0.0656131
0.0637816
0.0621386
0.0607486
0.0596249
0.058759
0.0580587
0.0574144
0.0566825
0.0555551
0.0538666
0.0514639
0.0482666
0.0443961
0.0401314
0.0357178
0.0313988
0.0272969
0.0234184
0.019667
0.0160134
0.0124229
0.00893895
0.00577065
0.00305215
0.000925519
-0.000553472
-0.00149814
-0.00210616
-0.00260851
-0.00328859
-0.00429329
-0.00558251
-0.00699236
-0.00823726
-0.00895535
-0.00903125
-0.00851601
-0.00767699
-0.00688747
-0.00648035
-0.00662798
-0.00727966
-0.00822254
-0.00919079
-0.0101093
-0.0110579
-0.0122489
-0.0139268
-0.0161982
-0.0189159
-0.0217806
-0.024304
-0.0260642
-0.0268642
-0.0267577
-0.0258827
-0.0245836
-0.0230477
-0.0213615
-0.0196015
-0.017748
-0.0159654
-0.0143716
-0.0130468
-0.0119903
-0.0109817
-0.00950794
-0.00696886
-0.00274799
0.00346938
0.0116189
0.0210897
0.0309201
0.0400309
0.0475273
0.0530121
0.0567732
0.0594748
0.0619817
0.0650155
0.0688727
0.073321
0.0777583
0.0813932
0.0835912
0.0840379
0.0826615
0.079837
0.0760167
0.0717115
0.0674622
0.0637209
0.0607836
0.0590683
0.058889
0.0603047
0.0629727
0.0660459
0.068151
0.0678059
0.0637228
0.0552257
0.0424377
0.0262474
0.00807112
-0.0104467
-0.0277873
-0.0427781
-0.0546263
-0.0629561
-0.0678381
-0.0697546
-0.0695497
-0.0681751
-0.0665169
-0.0651568
-0.0644025
-0.0642584
-0.064502
-0.0649765
-0.0656152
-0.0663655
-0.0670848
-0.0675071
-0.0672012
-0.0659311
-0.0638179
-0.0614675
-0.0601039
-0.0612025
-0.0661753
-0.0759631
-0.090805
-0.110524
-0.134502
-0.161916
-0.191617
-0.22175
-0.249372
-0.270417
-0.279762
-0.271842
-0.241214
-0.182715
-0.0914618
0.0361433
0.200665
0.396927
0.610972
0.818855
0.988854
1.08802
1.09158
0.991822
0.802687
0.557528
0.300281
0.0731669
-0.0945333
-0.192408
-0.228194
-0.221344
-0.194332
-0.165268
-0.144095
-0.13305
-0.129649
-0.130095
-0.13139
-0.132129
-0.132292
-0.132308
-0.132321
-0.132188
-0.131571
-0.130197
-0.128088
-0.125521
-0.122879
-0.120678
-0.119243
-0.118784
-0.119211
-0.120136
-0.121107
-0.121612
-0.121166
-0.119513
-0.116684
-0.112943
-0.108824
-0.104911
-0.101696
-0.0994294
-0.0981387
-0.0976333
-0.0975554
-0.0975305
-0.0973283
-0.0967724
-0.0958595
-0.0945898
-0.0930257
-0.0912194
-0.0892191
-0.0871046
-0.0850904
-0.0833717
-0.0822126
-0.0819393
-0.0827828
-0.0847739
-0.0876772
-0.0909832
-0.0939229
-0.0957668
-0.0960796
-0.0948487
-0.092444
-0.0895812
-0.0869182
-0.084926
-0.0837341
-0.0830967
-0.082618
-0.0820035
-0.0811131
-0.0801503
-0.0794584
-0.0793848
-0.0802259
-0.0820331
-0.0846151
-0.0877178
-0.0910831
-0.0945758
-0.0981528
-0.101818
-0.10547
-0.108828
-0.111463
-0.112912
-0.112702
-0.11058
-0.106433
-0.100272
-0.0922131
-0.0823963
-0.0710846
-0.0586497
-0.0457285
-0.033041
-0.0212763
-0.0110469
-0.0025405
0.00434213
0.00988116
0.0144168
0.0182852
0.0218125
0.0253728
0.0294956
0.0347272
0.0414607
0.0497328
0.0590626
0.0685572
0.0771106
0.0837384
0.0879214
0.0896989
0.0895205
0.0880741
0.0860196
0.0838946
0.0819728
0.0805533
0.0797494
0.0795948
0.0801644
0.0812771
0.0825402
0.083509
0.0837699
0.083101
0.0815778
0.0795839
0.0775387
0.0757722
0.0743931
0.073269
0.0722081
0.0709772
0.0693857
0.0673186
0.0647522
0.0615488
0.057734
0.0533559
0.048724
0.0442967
0.0405982
0.0379137
0.036204
0.0350988
0.0340345
0.0325657
0.0306351
0.0283907
0.0262816
0.0246668
0.0236088
0.0228675
0.0220342
0.0207293
0.0188827
0.0166979
0.014568
0.012821
0.0116821
0.0110804
0.0107073
0.0102112
0.00923441
0.00755775
0.00520727
0.00239559
-0.000447047
-0.00296037
-0.0048975
-0.00627598
-0.00744623
-0.00895892
-0.0114391
-0.0150876
-0.0197771
-0.0250193
-0.0300427
-0.0340963
-0.0366837
-0.0376816
-0.0372662
-0.035842
-0.0339071
-0.0318048
-0.0297023
-0.0276727
-0.025727
-0.0238873
-0.0223573
-0.0213752
-0.021173
-0.0218461
-0.0233556
-0.025351
-0.0273947
-0.0290487
-0.0300181
-0.0303022
-0.0302047
-0.030177
-0.0306922
-0.0319262
-0.0334877
-0.0346749
-0.0344644
-0.0319486
-0.0266562
-0.0188805
-0.0094745
0.000363168
0.00950339
0.0173681
0.0240216
0.0300755
0.036411
0.0437671
0.0523085
0.0616594
0.0708978
0.0788516
0.0845799
0.0875741
0.0879021
0.0860625
0.0827657
0.0785609
0.0737433
0.0684146
0.062593
0.0567083
0.0515949
0.0483795
0.0479755
0.0505877
0.0552406
0.0600347
0.0625754
0.0608514
0.0540834
0.0428673
0.0290255
0.0148819
0.00249203
-0.00702577
-0.0136009
-0.0181219
-0.0218071
-0.0258029
-0.0307282
-0.0365496
-0.0425979
-0.0480024
-0.0519589
-0.0539492
-0.0539765
-0.0524311
-0.049995
-0.0473476
-0.0452284
-0.0441422
-0.0443455
-0.0460074
-0.048949
-0.0527817
-0.0569781
-0.0609201
-0.0640258
-0.0659743
-0.0666011
-0.0659518
-0.064489
-0.0630637
-0.0632567
-0.0670485
-0.0766586
-0.0936949
-0.118436
-0.148825
-0.180081
-0.204885
-0.214051
-0.197826
-0.147154
-0.0552701
0.0803336
0.255752
0.458894
0.668899
0.857615
0.994182
1.05191
1.01568
0.887417
0.687182
0.44872
0.210914
0.00796287
-0.138505
-0.22255
-0.252345
-0.244519
-0.217562
-0.186516
-0.160528
-0.142953
-0.13337
-0.129859
-0.130215
-0.13284
-0.136663
-0.140764
-0.144253
-0.146368
-0.146659
-0.145083
-0.142042
-0.138288
-0.134584
-0.131646
-0.129885
-0.129387
-0.129971
-0.131184
-0.132435
-0.133247
-0.133206
-0.132174
-0.130151
-0.127254
-0.123537
-0.119087
-0.114009
-0.108472
-0.102864
-0.0976925
-0.0936407
-0.0914166
-0.0914572
-0.0936121
-0.0972036
-0.101159
-0.104286
-0.105811
-0.105542
-0.103968
-0.102009
-0.10069
-0.100669
-0.102175
-0.104941
-0.108476
-0.112308
-0.11583
-0.118533
-0.119863
-0.119324
-0.116715
-0.112346
-0.106892
-0.10152
-0.0972906
-0.0949076
-0.0943702
-0.0949622
-0.0957124
-0.0956511
-0.094395
-0.0922852
-0.0900792
-0.0887782
-0.0890305
-0.0910681
-0.0945085
-0.0987143
-0.103004
-0.10702
-0.110756
-0.114352
-0.118102
-0.122052
-0.126042
-0.129604
-0.132072
-0.13266
-0.130679
-0.1256
-0.117321
-0.106224
-0.0931697
-0.0794941
-0.0666148
-0.0557131
-0.0473375
-0.0411985
-0.0362509
-0.0309589
-0.0238985
-0.0141173
-0.00152355
0.0131515
0.0286015
0.0433257
0.0560599
0.0660532
0.0731644
0.0776996
0.0803297
0.0818886
0.0832075
0.0849203
0.0873847
0.09082
0.0952139
0.100501
0.106452
0.112826
0.119197
0.124966
0.129457
0.132118
0.1327
0.131399
0.12888
0.126016
0.123762
0.122625
0.122574
0.123095
0.123562
0.123353
0.122201
0.120233
0.117813
0.115292
0.112836
0.11035
0.107633
0.10444
0.100752
0.096789
0.0930809
0.0901779
0.0885614
0.0884559
0.0895878
0.0913192
0.0927541
0.0929517
0.0913243
0.0879104
0.0831343
0.0779006
0.0731471
0.0695439
0.0672645
0.0659781
0.0650717
0.0637878
0.0616574
0.0585322
0.0547357
0.0508494
0.0474595
0.0449977
0.0434947
0.042651
0.0418582
0.0405351
0.0383168
0.0351336
0.0312949
0.0273289
0.0238103
0.0211824
0.0196797
0.0192648
0.0197016
0.0207641
0.0221366
0.0236544
0.025164
0.0265473
0.0276373
0.0282588
0.0282872
0.0277271
0.0265516
0.0248984
0.0229904
0.0209402
0.0188987
0.0168723
0.0148554
0.012856
0.0108942
0.00908795
0.00764141
0.00671309
0.00637386
0.00668684
0.00761412
0.00903051
0.0109609
0.0133417
0.0163209
0.0199327
0.0242408
0.0291228
0.034497
0.0402177
0.0460715
0.0518735
0.0575687
0.063135
0.068613
0.0740973
0.0796827
0.0853531
0.0908119
0.0956341
0.0992436
0.101161
0.101157
0.0993989
0.0963649
0.0926608
0.088807
0.0851816
0.0819443
0.0792491
0.0772528
0.0763427
0.0767898
0.078625
0.0810993
0.0828689
0.0822727
0.0778193
0.0687149
0.0552789
0.0387629
0.0211963
0.004533
-0.00967632
-0.0205484
-0.0279972
-0.0323827
-0.0343769
-0.0346777
-0.0340447
-0.0331309
-0.0324816
-0.0325129
-0.033414
-0.0351786
-0.0376038
-0.0401573
-0.042371
-0.0437512
-0.0439798
-0.0428975
-0.0406421
-0.0375069
-0.0339534
-0.0304132
-0.0273218
-0.0248498
-0.023115
-0.0220351
-0.0216069
-0.0220444
-0.0238876
-0.028106
-0.0359619
-0.0487591
-0.0673633
-0.0917933
-0.120966
-0.15213
-0.180811
-0.200701
-0.204194
-0.183019
-0.128592
-0.0335898
0.105987
0.288063
0.501803
0.725914
0.929933
1.07892
1.14181
1.10048
0.956833
0.734107
0.47177
0.214978
0.00235176
-0.143131
-0.217833
-0.234438
-0.21463
-0.180632
-0.148805
-0.127254
-0.116903
-0.114824
-0.116973
-0.120248
-0.123101
-0.125283
-0.127001
-0.128519
-0.129913
-0.131179
-0.132308
-0.133216
-0.133762
-0.133754
-0.132991
-0.131327
-0.128767
-0.125574
-0.122065
-0.1187
-0.115805
-0.113496
-0.111691
-0.110214
-0.108854
-0.107509
-0.106234
-0.105033
-0.104079
-0.103289
-0.102647
-0.102116
-0.10181
-0.101869
-0.102467
-0.103601
-0.105091
-0.106553
-0.107577
-0.107786
-0.107161
-0.105942
-0.104655
-0.103803
-0.103744
-0.104539
-0.105882
-0.10725
-0.108026
-0.107799
-0.106407
-0.104035
-0.10105
-0.0979768
-0.0951309
-0.0928154
-0.0912223
-0.0904309
-0.0904359
-0.0911285
-0.0922834
-0.0935908
-0.0946962
-0.095458
-0.0958829
-0.0963173
-0.0971916
-0.0989057
-0.101634
-0.105374
-0.109869
-0.114728
-0.11956
-0.12396
-0.12757
-0.129976
-0.130669
-0.129104
-0.124872
-0.117664
-0.107556
-0.0949725
-0.0807463
-0.0659241
-0.0515813
-0.0386143
-0.0275024
-0.0182501
-0.010452
-0.003446
0.00343836
0.0106402
0.0184027
0.0266633
0.0352479
0.0440546
0.0529797
0.0619577
0.0709339
0.0797103
0.0880495
0.0957823
0.102716
0.108771
0.114014
0.118545
0.122484
0.1259
0.128856
0.131238
0.13296
0.133902
0.134032
0.133452
0.132358
0.131076
0.129819
0.128739
0.127691
0.126433
0.124631
0.121998
0.118452
0.114224
0.109629
0.105198
0.101443
0.0986006
0.0966347
0.0952731
0.0941118
0.0927556
0.0909674
0.0887228
0.08615
0.0835184
0.080993
0.0787017
0.0766909
0.0748361
0.0731121
0.0713666
0.0695593
0.0675309
0.0652634
0.0627438
0.0599979
0.0571109
0.0541626
0.0511048
0.0479351
0.0445614
0.0408464
0.0368059
0.0325715
0.0284087
0.0246784
0.0216236
0.0194267
0.0180489
0.0172765
0.0168686
0.0166117
0.0163375
0.0159721
0.0156084
0.0151898
0.0148881
0.0146791
0.0146514
0.0147809
0.0149886
0.015091
0.0147939
0.0137416
0.0117127
0.00864083
0.00469383
0.000313511
-0.00391674
-0.00743529
-0.00988625
-0.0112325
-0.0116627
-0.0115992
-0.0113339
-0.0110284
-0.0106313
-0.00987349
-0.00860654
-0.00685074
-0.00495221
-0.00328175
-0.0023528
-0.00217081
-0.00232537
-0.00189215
0.000307938
0.00520343
0.0131033
0.0235104
0.0351318
0.0463342
0.0556943
0.062437
0.0666974
0.0693375
0.0715356
0.0740885
0.077306
0.0807894
0.0835947
0.0849429
0.0843589
0.0818328
0.0780152
0.0737141
0.0698091
0.0669673
0.0657374
0.0664333
0.0689811
0.0728329
0.0768243
0.0793298
0.0787024
0.0737234
0.0640187
0.0503024
0.0340379
0.0172062
0.00154746
-0.0118071
-0.0223476
-0.0300322
-0.0353879
-0.0389842
-0.0415109
-0.0436484
-0.0457962
-0.0481158
-0.0505051
-0.0525916
-0.0540687
-0.0547766
-0.0548036
-0.0546179
-0.0546682
-0.0553371
-0.0567246
-0.0584922
-0.0601527
-0.0612242
-0.061444
-0.0610373
-0.0607843
-0.0621615
-0.0670924
-0.0774556
-0.0948439
-0.119697
-0.150629
-0.183999
-0.213848
-0.23291
-0.234266
-0.213043
-0.167754
-0.100514
-0.0154996
0.083081
0.193406
0.316914
0.456872
0.61506
0.787369
0.960321
1.11067
1.20926
1.22883
1.15318
0.984441
0.744843
0.472073
0.209138
-0.00717076
-0.155584
-0.233671
-0.255052
-0.241808
-0.215943
-0.192963
-0.179652
-0.175716
-0.177256
-0.180314
-0.182438
-0.183177
-0.183271
-0.183589
-0.184437
-0.185623
-0.186705
-0.187353
-0.187528
-0.187269
-0.186713
-0.186044
-0.185357
-0.18482
-0.184552
-0.184651
-0.185095
-0.185577
-0.185594
-0.184626
-0.182225
-0.178309
-0.173183
-0.167557
-0.162205
-0.157682
-0.154255
-0.15182
-0.150107
-0.148743
-0.147602
-0.146685
-0.146151
-0.146083
-0.146375
-0.146923
-0.147513
-0.148015
-0.148475
-0.148972
-0.149549
-0.15013
-0.150428
-0.150186
-0.149317
-0.147833
-0.146002
-0.14416
-0.142524
-0.141148
-0.139854
-0.138461
-0.136814
-0.134968
-0.133079
-0.131425
-0.130236
-0.129649
-0.129792
-0.130815
-0.132862
-0.136029
-0.140294
-0.14538
-0.150757
-0.155837
-0.160044
-0.162991
-0.164544
-0.164762
-0.163585
-0.161034
-0.156904
-0.150796
-0.142473
-0.131625
-0.118285
-0.102653
-0.0851751
-0.066469
-0.0473608
-0.0287268
-0.0114884
0.00353188
0.015785
0.0250482
0.0314298
0.0355753
0.0382895
0.0405624
0.0431334
0.0465415
0.050865
0.0558956
0.0612181
0.0664182
0.071125
0.0753067
0.0790523
0.0825652
0.086078
0.0895837
0.0929346
0.0957873
0.097772
0.098655
0.0983913
0.097171
0.0953207
0.0931458
0.0909325
0.0887902
0.086759
0.0847334
0.082714
0.0806242
0.0784198
0.0760755
0.0735245
0.0706736
0.0675195
0.0641725
0.0609144
0.0580609
0.0560594
0.0550536
0.0550776
0.0558513
0.056862
0.0577089
0.0581259
0.0579971
0.0575942
0.0573292
0.0576474
0.0590018
0.0616604
0.0655923
0.0705211
0.0759415
0.0811192
0.0853805
0.0882389
0.0894213
0.0890821
0.0876817
0.0858616
0.0844
0.0839336
0.0849383
0.0873456
0.0906632
0.0939219
0.0959381
0.095661
0.0923348
0.0856522
0.0759572
0.0639842
0.0506803
0.0370723
0.0239664
0.0118138
0.000840361
-0.00899615
-0.0179091
-0.0261798
-0.0340695
-0.0416862
-0.0489463
-0.0556834
-0.0616398
-0.0665615
-0.0703209
-0.0728775
-0.0743466
-0.0748418
-0.0743632
-0.0729724
-0.070663
-0.0675999
-0.0641631
-0.0608542
-0.0582705
-0.0568758
-0.0567744
-0.0576751
-0.0589279
-0.0598655
-0.0599891
-0.0591584
-0.0578931
-0.0574197
-0.0597642
-0.0673409
-0.0823529
-0.106082
-0.137912
-0.174431
-0.209119
-0.232701
-0.234151
-0.202193
-0.127097
-0.00277311
0.170357
0.383176
0.616166
0.83988
1.01899
1.11962
1.11852
1.01097
0.814046
0.563358
0.303747
0.0769947
-0.08884
-0.184771
-0.219485
-0.212833
-0.18728
-0.160695
-0.142839
-0.135909
-0.137331
-0.143007
-0.149511
-0.154825
-0.158271
-0.159915
-0.159941
-0.158575
-0.15615
-0.153016
-0.149622
-0.14639
-0.143575
-0.141254
-0.139387
-0.137845
-0.1365
-0.135271
-0.134239
-0.133421
-0.132863
-0.132474
-0.132143
-0.131628
-0.130779
-0.129635
-0.12842
-0.127455
-0.127113
-0.127546
-0.128563
-0.129723
-0.130367
-0.130037
-0.128518
-0.126116
-0.12354
-0.121496
-0.120513
-0.120582
-0.121262
-0.121771
-0.121338
-0.119684
-0.116905
-0.113612
-0.110632
-0.108648
-0.107852
-0.108092
-0.108899
-0.109654
-0.109938
-0.109659
-0.108906
-0.107949
-0.107136
-0.106714
-0.106787
-0.107194
-0.107744
-0.108144
-0.108167
-0.107759
-0.107136
-0.106642
-0.106611
-0.107304
-0.108732
-0.110634
-0.112666
-0.114597
-0.11624
-0.117522
-0.118367
-0.118544
-0.117613
-0.115012
-0.110164
-0.102779
-0.0929755
-0.0813304
-0.0687201
-0.0561079
-0.0441686
-0.033264
-0.0231707
-0.013352
-0.00318227
0.0077398
0.0195416
0.0318417
0.044019
0.0553306
0.0651493
0.0730804
0.0790203
0.0831457
0.0857808
0.0873879
0.0884327
0.0893215
0.090398
0.0917515
0.0932043
0.0944642
0.0951113
0.094874
0.0936474
0.0915718
0.0889138
0.0860904
0.0834735
0.0813562
0.0799571
0.0794076
0.079669
0.0805029
0.0813978
0.0817301
0.0808601
0.0784613
0.0747065
0.0702082
0.0659477
0.0628195
0.0611541
0.0607193
0.0606517
0.0599426
0.0577254
0.0537525
0.0485128
0.042897
0.0378887
0.034136
0.0318011
0.0305352
0.0297094
0.0287176
0.0271424
0.0249058
0.0222383
0.0196233
0.0175489
0.0163939
0.01624
0.0168591
0.0177393
0.0182755
0.0179529
0.0165773
0.0144405
0.0121771
0.0105531
0.00999775
0.0106589
0.0120731
0.0133784
0.0136683
0.0123028
0.00927307
0.00507241
0.000556232
-0.00355629
-0.00686056
-0.00938138
-0.0114494
-0.0132951
-0.0148836
-0.0158702
-0.0158017
-0.0144646
-0.0119441
-0.00890003
-0.0062615
-0.00488753
-0.0053317
-0.00756946
-0.0111353
-0.0152116
-0.0188529
-0.0214178
-0.0227281
-0.0229709
-0.0226604
-0.0223392
-0.0223543
-0.0227529
-0.0233819
-0.0239393
-0.0243618
-0.0246952
-0.0251479
-0.0259194
-0.0270158
-0.0282239
-0.0291043
-0.0291482
-0.0282081
-0.0264685
-0.024452
-0.0230069
-0.0228653
-0.0243365
-0.0271364
-0.0304122
-0.0330736
-0.0341938
-0.0332743
-0.0305285
-0.0265584
-0.022233
-0.01832
-0.0152788
-0.013296
-0.0122646
-0.0119786
-0.01229
-0.0131087
-0.0143211
-0.0159312
-0.0178705
-0.0201548
-0.0226744
-0.0251083
-0.0270079
-0.027834
-0.0270712
-0.0245495
-0.0206375
-0.0159753
-0.0116366
-0.00848452
-0.00700013
-0.00700244
-0.00767403
-0.00795972
-0.00676705
-0.00345519
0.0020703
0.00939722
0.0176599
0.0259411
0.0334784
0.0399527
0.0453267
0.0498837
0.0539942
0.0578794
0.0615784
0.0648393
0.0672796
0.0684094
0.0678665
0.0654643
0.0613869
0.0559778
0.0499992
0.0444246
0.0402694
0.0383695
0.0389683
0.0413444
0.0439645
0.0447641
0.0415798
0.0329866
0.0187971
0.000218121
-0.0203406
-0.0399529
-0.0559798
-0.0667196
-0.0718527
-0.0722148
-0.0695372
-0.0657936
-0.0626918
-0.061061
-0.0608384
-0.0611941
-0.0610309
-0.0594786
-0.0563053
-0.0520841
-0.0479035
-0.0450232
-0.0443297
-0.0460251
-0.0496581
-0.0543116
-0.0590163
-0.0633638
-0.067915
-0.0741206
-0.0839794
-0.0995365
-0.121854
-0.149943
-0.179781
-0.204287
-0.213685
-0.196508
-0.141514
-0.0404787
0.108815
0.29976
0.515263
0.728481
0.906764
1.01842
1.04063
0.966185
0.80612
0.587567
0.346879
0.120479
-0.0635716
-0.190673
-0.260224
-0.282423
-0.273113
-0.248229
-0.220229
-0.196564
-0.180188
-0.170739
-0.16606
-0.163862
-0.162454
-0.161023
-0.159527
-0.158266
-0.15757
-0.157545
-0.157942
-0.158412
-0.158471
-0.157858
-0.156495
-0.15454
-0.152223
-0.14974
-0.147191
-0.144609
-0.141987
-0.139428
-0.136987
-0.13493
-0.133528
-0.133082
-0.133767
-0.135481
-0.137953
-0.140592
-0.14277
-0.14388
-0.143503
-0.141556
-0.138201
-0.133764
-0.12865
-0.123149
-0.117401
-0.111491
-0.105589
-0.0999391
-0.0949916
-0.0911664
-0.0888392
-0.0882108
-0.0891739
-0.0912598
-0.0939294
-0.0965958
-0.0988664
-0.100392
-0.101121
-0.101159
-0.100828
-0.100547
-0.100718
-0.101666
-0.103483
-0.106021
-0.108921
-0.111649
-0.113745
-0.114824
-0.114832
-0.113988
-0.112825
-0.112037
-0.112255
-0.113964
-0.117299
-0.121978
-0.127451
-0.13303
-0.138025
-0.141734
-0.143469
-0.14258
-0.138433
-0.130658
-0.119374
-0.105415
-0.0902163
-0.0756099
-0.0632599
-0.054159
-0.0483396
-0.0450162
-0.042721
-0.0399703
-0.0355096
-0.0287812
-0.0197104
-0.00863933
0.00399896
0.0177578
0.0322627
0.0470553
0.0616913
0.0756439
0.0884668
0.0998416
0.109632
0.117826
0.124553
0.129887
0.133891
0.136542
0.137751
0.137561
0.136041
0.133386
0.129869
0.125889
0.121822
0.118189
0.11525
0.113253
0.112191
0.11185
0.111853
0.111784
0.111278
0.110221
0.108662
0.106889
0.105231
0.103823
0.102703
0.101641
0.100318
0.098381
0.0956573
0.0921281
0.0879871
0.083542
0.079106
0.0749838
0.0713052
0.0682012
0.0657538
0.0638578
0.0624731
0.0613547
0.0601637
0.0585376
0.0561834
0.0530196
0.0492004
0.0451555
0.0413264
0.0380756
0.0355806
0.0337462
0.0323898
0.0312154
0.0300295
0.0286589
0.0269621
0.0247908
0.0220528
0.0187791
0.0151577
0.011485
0.0082648
0.00580412
0.00423768
0.00342392
0.00293056
0.00220318
0.000796628
-0.00143997
-0.00425676
-0.00713208
-0.00939271
-0.0105171
-0.0103201
-0.00912947
-0.0075709
-0.00632946
-0.00598443
-0.00663528
-0.00807123
-0.00981888
-0.0114217
-0.0125521
-0.0130841
-0.0130167
-0.0122911
-0.010696
-0.00804049
-0.00412831
0.000921389
0.00669359
0.0125278
0.017898
0.0225947
0.0267787
0.0309703
0.0357511
0.0415807
0.0485684
0.0564076
0.0645838
0.0723329
0.078931
0.0837308
0.0863046
0.0865611
0.0847874
0.0814892
0.0772827
0.0727143
0.0681753
0.0639128
0.060058
0.0569249
0.0548868
0.0543128
0.0551515
0.0568036
0.0579716
0.0570767
0.0527872
0.0444331
0.0324074
0.0180828
0.00321655
-0.0104235
-0.021665
-0.0301281
-0.0361054
-0.0402519
-0.0432171
-0.0454098
-0.0470818
-0.0483051
-0.049097
-0.0494414
-0.0494119
-0.049258
-0.0491533
-0.0493973
-0.0501766
-0.0514633
-0.0529689
-0.0543396
-0.055151
-0.0552648
-0.0550538
-0.055613
-0.0586165
-0.0661288
-0.0799111
-0.100991
-0.12892
-0.16096
-0.191748
-0.213353
-0.215803
-0.188303
-0.120767
-0.00627287
0.15637
0.359675
0.586101
0.808462
0.993383
1.10803
1.12811
1.04497
0.869441
0.630158
0.366813
0.120155
-0.0777537
-0.209959
-0.276014
-0.288554
-0.267019
-0.231002
-0.195274
-0.168081
-0.151642
-0.144188
-0.142345
-0.142748
-0.143203
-0.142701
-0.141283
-0.139436
-0.137899
-0.137222
-0.137619
-0.139076
-0.14121
-0.143526
-0.145553
-0.146931
-0.147485
-0.14716
-0.145981
-0.143952
-0.141166
-0.1377
-0.133872
-0.130033
-0.126604
-0.123914
-0.122136
-0.121127
-0.120405
-0.119559
-0.118134
-0.115982
-0.113269
-0.11038
-0.107739
-0.105786
-0.104768
-0.104728
-0.105481
-0.106664
-0.107804
-0.108402
-0.108072
-0.106669
-0.104282
-0.101331
-0.0983057
-0.0957725
-0.0940536
-0.0932435
-0.0932198
-0.0936519
-0.0941129
-0.0942581
-0.0938662
-0.0928684
-0.0913202
-0.0894805
-0.0875177
-0.0857166
-0.0843438
-0.0836449
-0.0838542
-0.0851506
-0.087685
-0.0914807
-0.0963996
-0.102116
-0.108108
-0.113697
-0.118358
-0.121716
-0.12366
-0.124301
-0.123937
-0.122642
-0.12041
-0.116949
-0.111913
-0.104978
-0.0961263
-0.0855109
-0.0737323
-0.0613949
-0.0494268
-0.0384774
-0.0291084
-0.0214226
-0.0151571
-0.00962172
-0.00388405
0.0029664
0.0115236
0.0219908
0.034019
0.0468359
0.0595016
0.0711352
0.0810524
0.0889526
0.095051
0.0997953
0.103877
0.107734
0.111635
0.11542
0.118739
0.121029
0.121981
0.121545
0.120094
0.118214
0.116454
0.115185
0.114382
0.113836
0.113115
0.111965
0.110338
0.108402
0.106524
0.105196
0.104952
0.106262
0.109556
0.115061
0.122747
0.132144
0.142351
0.152261
0.160749
0.166969
0.170559
0.171756
0.171244
0.170056
0.169185
0.169131
0.169927
0.170811
0.170703
0.168294
0.162699
0.153501
0.141091
0.126378
0.110592
0.0949282
0.0802382
0.0670287
0.0553774
0.0451217
0.0358579
0.0271569
0.0186357
0.010086
0.00148929
-0.00703761
-0.0152173
-0.0227391
-0.0293916
-0.0351065
-0.0398949
-0.043868
-0.0471962
-0.0500116
-0.0525091
-0.0547842
-0.0569595
-0.05901
-0.0608285
-0.0622842
-0.0632949
-0.0638252
-0.0638499
-0.0633884
-0.0623333
-0.0604751
-0.0576406
-0.0538387
-0.0495365
-0.0457798
-0.0442892
-0.0471893
-0.056858
-0.0752743
-0.10336
-0.140376
-0.18312
-0.225196
-0.257274
-0.267785
-0.244015
-0.174155
-0.0500203
0.129489
0.355138
0.605451
0.847594
1.04196
1.15111
1.15032
1.03591
0.828243
0.567132
0.300813
0.072647
-0.089996
-0.180467
-0.210372
-0.20159
-0.177143
-0.153948
-0.139979
-0.135626
-0.137464
-0.141449
-0.144857
-0.146814
-0.147678
-0.148258
-0.14908
-0.150281
-0.15174
-0.153286
-0.154633
-0.155553
-0.155829
-0.155291
-0.153892
-0.15175
-0.149002
-0.145839
-0.142475
-0.139123
-0.135888
-0.132863
-0.130037
-0.1273
-0.124565
-0.121674
-0.11845
-0.114985
-0.111466
-0.108264
-0.105903
-0.104926
-0.105642
-0.108012
-0.11159
-0.115578
-0.119162
-0.12168
-0.122855
-0.122881
-0.122203
-0.12125
-0.120332
-0.119508
-0.118642
-0.117596
-0.11625
-0.114613
-0.11279
-0.110918
-0.109079
-0.107427
-0.106172
-0.105403
-0.105272
-0.105727
-0.106595
-0.107545
-0.108251
-0.108532
-0.108407
-0.108152
-0.10811
-0.108647
-0.109944
-0.111996
-0.114591
-0.117402
-0.120161
-0.122666
-0.12491
-0.126853
-0.128598
-0.130181
-0.131462
-0.132146
-0.131693
-0.129454
-0.12478
-0.117209
-0.106508
-0.092893
-0.0769044
-0.0594356
-0.04154
-0.0242657
-0.00847459
0.00531636
0.016945
0.0267406
0.0352666
0.0431733
0.0509999
0.058919
0.0668118
0.0743032
0.0809906
0.0864924
0.0906194
0.0934166
0.0950396
0.095727
0.0956993
0.0951589
0.0943177
0.0932915
0.0921174
0.0908104
0.089274
0.0875016
0.0854314
0.083085
0.0805152
0.0776669
0.0745207
0.0710616
0.067328
0.0635932
0.0602551
0.057665
0.0560628
0.0553153
0.0550355
0.0547066
0.0539479
0.0526272
0.0508877
0.049073
0.0474485
0.0460753
0.0447295
0.0430787
0.0407481
0.0375548
0.0335663
0.0291248
0.0247063
0.0207532
0.0175232
0.0151229
0.0133928
0.0120939
0.0110018
0.0101001
0.00938955
0.00901916
0.00905918
0.00951526
0.0102376
0.0110504
0.0117555
0.0121253
0.0120372
0.0114363
0.0102996
0.00872209
0.00687304
0.00489203
0.00300571
0.00133237
3.67592e-5
-0.000831105
-0.0011625
-0.000885914
-7.10856e-6
0.00131464
0.00284657
0.00426847
0.00526878
0.0057053
0.00560193
0.00517345
0.00472164
0.00453992
0.00483167
0.00557787
0.00660292
0.00765413
0.00851064
0.00894774
0.00885963
0.00819897
0.0069871
0.00536991
0.00352203
0.00172283
0.000244423
-0.000683191
-0.00102244
-0.00085904
-0.000306178
0.000514165
0.00152837
0.00274922
0.00427864
0.00600825
0.00782538
0.00942943
0.0106256
0.0112425
0.0113608
0.0111292
0.0106984
0.0102116
0.0096334
0.00885007
0.00779057
0.00654501
0.00533786
0.00443831
0.00416262
0.00457609
0.00552719
0.00665947
0.00763713
0.00827709
0.00867895
0.00913411
0.0100641
0.0117106
0.0140189
0.0166471
0.0189726
0.020477
0.0207194
0.0197856
0.0179459
0.0156982
0.013536
0.0117489
0.0103381
0.00917999
0.00808272
0.00697164
0.00595744
0.00534833
0.00541364
0.00636285
0.00813556
0.010402
0.0125946
0.014193
0.0147557
0.0141958
0.0126933
0.0106372
0.00858279
0.00697258
0.00622929
0.00668441
0.00865658
0.0122197
0.0173199
0.0235473
0.0301819
0.0363425
0.0413016
0.0447212
0.0469103
0.0486162
0.0508107
0.0542659
0.059302
0.0656457
0.0726091
0.0792738
0.0848137
0.0885517
0.0901724
0.0895907
0.0870461
0.0830946
0.0784609
0.0741147
0.0708133
0.0688907
0.0681141
0.0678743
0.0673609
0.0661121
0.0642507
0.0623779
0.0612075
0.0610194
0.0612582
0.0606276
0.0575444
0.0507641
0.0399606
0.0258945
0.0101039
-0.00561091
-0.0196176
-0.0309195
-0.0391589
-0.0444693
-0.0474055
-0.0485937
-0.0487199
-0.0484829
-0.048433
-0.0489046
-0.0499211
-0.0513555
-0.0529096
-0.0543377
-0.0555616
-0.0565767
-0.0574826
-0.0584031
-0.0594419
-0.0606564
-0.062376
-0.0652426
-0.0705198
-0.0796963
-0.0942819
-0.115122
-0.141749
-0.171439
-0.198861
-0.216216
-0.213591
-0.180007
-0.105218
0.0176016
0.188519
0.397714
0.623732
0.834749
0.993872
1.06804
1.03788
0.904762
0.692266
0.440401
0.194493
-0.00740283
-0.143811
-0.212858
-0.228358
-0.212044
-0.184883
-0.161045
-0.146427
-0.140503
-0.140001
-0.14161
-0.143521
-0.145475
-0.147902
-0.151233
-0.155401
-0.160039
-0.164695
-0.169042
-0.172795
-0.175733
-0.177628
-0.178172
-0.177158
-0.174433
-0.170038
-0.16429
-0.157698
-0.15094
-0.144867
-0.140233
-0.137439
-0.136636
-0.137367
-0.138812
-0.140067
-0.140328
-0.139161
-0.136509
-0.13272
-0.128355
-0.124002
-0.120159
-0.117133
-0.114995
-0.113693
-0.112918
-0.112475
-0.112089
-0.111595
-0.111033
-0.110443
-0.109909
-0.109453
-0.109067
-0.108598
-0.1079
-0.106861
-0.105345
-0.103278
-0.100677
-0.0976636
-0.0944984
-0.0914367
-0.0887733
-0.0866248
-0.0850246
-0.083851
-0.082929
-0.0821824
-0.0816744
-0.0815661
-0.0821438
-0.0835109
-0.0856109
-0.088152
-0.0907444
-0.0931124
-0.0952059
-0.0972896
-0.0997061
-0.102735
-0.106273
-0.109777
-0.112206
-0.11234
-0.109138
-0.102005
-0.0910821
-0.0771681
-0.0615033
-0.0456445
-0.0308574
-0.0180311
-0.00747261
0.00103529
0.00810319
0.0145453
0.0210119
0.0280617
0.0359069
0.0444145
0.0532416
0.0618005
0.0694329
0.0755346
0.0797822
0.0821053
0.0828968
0.0828631
0.0829446
0.0839991
0.086538
0.0906481
0.0959957
0.101897
0.107535
0.112309
0.115807
0.117915
0.118721
0.118323
0.116887
0.114559
0.111522
0.107957
0.10411
0.100324
0.0969319
0.0942668
0.0925112
0.0916884
0.0914563
0.0913432
0.0907697
0.0893465
0.0868953
0.0835396
0.0796313
0.0755365
0.0715814
0.0679544
0.0647899
0.0621705
0.0601216
0.0585664
0.0572336
0.0558357
0.0541112
0.0519203
0.0493863
0.0467843
0.0442623
0.0417832
0.0390085
0.0354424
0.0307871
0.0250283
0.0186682
0.0125789
0.00757655
0.00419495
0.00243725
0.00178464
0.00142491
0.000584043
-0.00121773
-0.00391983
-0.00707536
-0.00999149
-0.0120409
-0.012912
-0.0127155
-0.0119106
-0.0111679
-0.0111199
-0.0121108
-0.0141087
-0.0166743
-0.0193267
-0.0216389
-0.0234
-0.0248467
-0.0263326
-0.0282903
-0.0309636
-0.034231
-0.0376747
-0.0406836
-0.0426795
-0.0434186
-0.0429733
-0.0417358
-0.0403534
-0.0394027
-0.0391974
-0.0396908
-0.0404115
-0.0406492
-0.0398219
-0.0375996
-0.03407
-0.029802
-0.025511
-0.0218296
-0.0189048
-0.0163338
-0.0134224
-0.00940881
-0.00386366
0.00306061
0.0105362
0.0175141
0.0231341
0.0270662
0.0297161
0.0319566
0.0347914
0.0388424
0.0441126
0.0500256
0.0555648
0.0598233
0.0622902
0.0630021
0.0625331
0.0615993
0.0607004
0.0601337
0.0597831
0.0592934
0.058361
0.0568286
0.0548936
0.0530582
0.0518081
0.0514052
0.0517065
0.0520447
0.0513219
0.0483292
0.0420789
0.0321834
0.0189969
0.00354656
-0.012624
-0.0280335
-0.0414297
-0.0520346
-0.059578
-0.064211
-0.0663302
-0.0664425
-0.0650226
-0.0625647
-0.0595297
-0.0564026
-0.0537527
-0.0520047
-0.0514049
-0.051905
-0.0531063
-0.054357
-0.0550948
-0.0550138
-0.0542427
-0.0531298
-0.0522366
-0.0519604
-0.0525927
-0.0542269
-0.0570979
-0.0616268
-0.0684064
-0.0781793
-0.0915152
-0.108796
-0.130097
-0.15499
-0.182097
-0.208606
-0.229689
-0.238158
-0.224739
-0.17909
-0.0919637
0.0416159
0.21898
0.427142
0.642421
0.83298
0.96522
1.01191
0.960328
0.816931
0.606912
0.367792
0.139616
-0.0452672
-0.169442
-0.231938
-0.245212
-0.22836
-0.200156
-0.174137
-0.156818
-0.148808
-0.147236
-0.148432
-0.149491
-0.149048
-0.147067
-0.144107
-0.140769
-0.137513
-0.134527
-0.131795
-0.129202
-0.12667
-0.124141
-0.121597
-0.119024
-0.116485
-0.114064
-0.111955
-0.110396
-0.109643
-0.109716
-0.110481
-0.111563
-0.112537
-0.113045
-0.112864
-0.112025
-0.110657
-0.109015
-0.107393
-0.106004
-0.104903
-0.104088
-0.103298
-0.102329
-0.100957
-0.0990721
-0.0967928
-0.0943858
-0.0922439
-0.0906915
-0.0898006
-0.0895056
-0.0895896
-0.0896912
-0.0896186
-0.0893408
-0.0889334
-0.0886396
-0.088665
-0.0891682
-0.0900769
-0.0911686
-0.0921159
-0.0925624
-0.0922422
-0.0909791
-0.0889037
-0.0862482
-0.0834146
-0.0808091
-0.078708
-0.0772809
-0.0765101
-0.0763299
-0.0765885
-0.0771904
-0.0782103
-0.0797265
-0.0819591
-0.0852253
-0.0896468
-0.0952012
-0.10163
-0.10821
-0.113937
-0.117616
-0.118224
-0.115135
-0.108412
-0.0988534
-0.0877465
-0.0766583
-0.0669029
-0.059247
-0.0538716
-0.0502405
-0.0475758
-0.0450382
-0.0420335
-0.0383173
-0.0338328
-0.0286298
-0.0226768
-0.0158802
-0.00799883
0.00113794
0.0114317
0.022619
0.0343366
0.0461102
0.0574311
0.0678273
0.0769232
0.0844221
0.0902618
0.0946016
0.0978596
0.100526
0.103056
0.105632
0.108098
0.1099
0.110457
0.10931
0.106465
0.102455
0.098166
0.0944121
0.0919376
0.0910119
0.0913811
0.092578
0.0940713
0.0953956
0.0963223
0.0966878
0.096417
0.0954822
0.0937969
0.0914021
0.0883818
0.0849469
0.0813977
0.0780463
0.0751756
0.0728511
0.0710447
0.0696069
0.0682576
0.0667334
0.0647945
0.0623023
0.0591864
0.055574
0.051567
0.0474318
0.0434091
0.0396361
0.0362222
0.0331602
0.0304039
0.0279071
0.0257447
0.0240137
0.0229666
0.02264
0.0229994
0.0237905
0.0245435
0.0247275
0.0238822
0.0218871
0.0188536
0.0153113
0.0121044
0.00988431
0.0091066
0.00970908
0.0111619
0.0126441
0.0133584
0.012718
0.0105696
0.00721961
0.00323706
-0.000685697
-0.0040123
-0.00642324
-0.00788544
-0.00854142
-0.00881529
-0.00900643
-0.00946222
-0.0102892
-0.0113564
-0.0123104
-0.0127294
-0.0123211
-0.0109388
-0.00884646
-0.00664475
-0.00492209
-0.00430528
-0.00504021
-0.00698647
-0.00966788
-0.0123986
-0.0145979
-0.0158701
-0.0160863
-0.0153725
-0.0139577
-0.0121063
-0.0100479
-0.00791339
-0.00575736
-0.0034587
-0.000901947
0.00206708
0.00564949
0.00994105
0.0149847
0.0206565
0.0267425
0.0329559
0.0391164
0.0451554
0.051126
0.0571934
0.0633801
0.0694966
0.0751171
0.0795912
0.0823405
0.0830873
0.0818007
0.0788965
0.0748473
0.0701393
0.0651977
0.0604641
0.0564863
0.0539283
0.0531901
0.0542533
0.0562473
0.0576056
0.0564014
0.051053
0.0407728
0.026053
0.00854242
-0.00949392
-0.0258119
-0.0388246
-0.0477723
-0.0527862
-0.054553
-0.0539701
-0.051976
-0.0494152
-0.0468969
-0.0449067
-0.0437326
-0.0434934
-0.0441447
-0.0454792
-0.0471751
-0.0489051
-0.0503825
-0.0513836
-0.0517498
-0.0514142
-0.0504804
-0.0494158
-0.0488275
-0.0495982
-0.0527006
-0.0588734
-0.0683922
-0.0809808
-0.0961782
-0.113604
-0.133221
-0.155177
-0.179293
-0.204443
-0.227776
-0.2447
-0.249197
-0.23457
-0.193984
-0.121077
-0.0108645
0.138467
0.323187
0.531295
0.741042
0.922467
1.04294
1.07559
1.00804
0.847763
0.621905
0.370459
0.135278
-0.0508816
-0.171703
-0.228567
-0.236249
-0.215453
-0.185227
-0.15831
-0.140144
-0.130635
-0.127028
-0.126319
-0.126567
-0.126878
-0.127099
-0.127181
-0.126903
-0.126131
-0.124904
-0.12335
-0.121798
-0.120555
-0.11975
-0.119278
-0.118907
-0.118389
-0.117533
-0.116284
-0.114721
-0.113022
-0.111354
-0.109777
-0.108391
-0.107219
-0.106213
-0.105324
-0.104425
-0.10342
-0.10207
-0.100277
-0.097971
-0.0951891
-0.0921064
-0.0890263
-0.0862111
-0.0839238
-0.0822971
-0.0813103
-0.0808529
-0.0807308
-0.0806922
-0.0805441
-0.0802356
-0.0797527
-0.0791484
-0.0784967
-0.0778411
-0.0772397
-0.0767691
-0.0764928
-0.0765603
-0.0770291
-0.0779228
-0.0790828
-0.0802832
-0.0812893
-0.0819368
-0.0821823
-0.0821945
-0.0821741
-0.0823145
-0.0827185
-0.0833731
-0.0842325
-0.0852692
-0.0865199
-0.0882356
-0.0906963
-0.0940402
-0.0982978
-0.103316
-0.108838
-0.114525
-0.120046
-0.124988
-0.128952
-0.131392
-0.131681
-0.129197
-0.123538
-0.114582
-0.102619
-0.0884756
-0.0732256
-0.0580784
-0.0440836
-0.0317922
-0.0212709
-0.0121109
-0.00346638
0.00545418
0.0152484
0.0262586
0.0383663
0.0511976
0.0641135
0.0763911
0.0873929
0.0964685
0.103267
0.107651
0.109909
0.110699
0.110752
0.110842
0.111625
0.113317
0.115775
0.118622
0.121351
0.123513
0.124959
0.125632
0.125709
0.125419
0.124863
0.12407
0.123063
0.121793
0.120323
0.118747
0.11725
0.116032
0.115215
0.114752
0.114416
0.113907
0.112819
0.110754
0.107515
0.10315
0.0978965
0.0922813
0.0868696
0.0822056
0.0785785
0.0760479
0.0743884
0.0733061
0.0725094
0.0717892
0.0710613
0.070302
0.0693504
0.0679894
0.0660598
0.0634497
0.0603729
0.0571335
0.0540522
0.0513923
0.0491092
0.0470362
0.0449518
0.0426559
0.0402058
0.0377059
0.0353652
0.0332376
0.0313264
0.0295291
0.0277323
0.0258205
0.0238391
0.0218694
0.0200796
0.018732
0.0179996
0.0179161
0.0183821
0.0190864
0.0196247
0.0196696
0.0190187
0.0178013
0.0162792
0.0147506
0.0134914
0.0124151
0.0112285
0.00954554
0.00705266
0.00370474
-0.000255866
-0.00433183
-0.00794714
-0.0106146
-0.0120513
-0.0121209
-0.0110481
-0.0091618
-0.00681012
-0.00438074
-0.00226495
-0.000673192
0.000383425
0.00124045
0.00234636
0.00438685
0.00794103
0.0133442
0.0205501
0.0291225
0.0382816
0.0471154
0.0548727
0.0611412
0.0658014
0.0691537
0.0717191
0.074069
0.0766766
0.0798129
0.0833902
0.0869296
0.089716
0.0910713
0.0905144
0.0879061
0.0837666
0.0787835
0.0736905
0.068959
0.0649004
0.0616898
0.0596759
0.0594579
0.0616029
0.0662011
0.0724336
0.0786125
0.0823381
0.0813486
0.0743816
0.0614582
0.0440761
0.0245679
0.00542609
-0.011415
-0.024888
-0.0348668
-0.0417423
-0.046072
-0.0485254
-0.0495733
-0.0497228
-0.0493297
-0.0488431
-0.0485353
-0.0485776
-0.0488716
-0.0492089
-0.0493983
-0.0493434
-0.0489836
-0.0484124
-0.0476256
-0.0466587
-0.0456748
-0.0451865
-0.0459153
-0.0489541
-0.055158
-0.0651683
-0.0791575
-0.096947
-0.11813
-0.142295
-0.168615
-0.194777
-0.2161
-0.225276
-0.212344
-0.165776
-0.0747956
0.0671826
0.258762
0.487523
0.728797
0.947944
1.10639
1.17122
1.12485
0.971833
0.739225
0.470026
0.211281
0.00136436
-0.139131
-0.209756
-0.225884
-0.210391
-0.184855
-0.163629
-0.152261
-0.149665
-0.151862
-0.154814
-0.156217
-0.15552
-0.153496
-0.151129
-0.149121
-0.147762
-0.146984
-0.146631
-0.146414
-0.14605
-0.145376
-0.144229
-0.142502
-0.140164
-0.137311
-0.134057
-0.130682
-0.127461
-0.124723
-0.122576
-0.120996
-0.119739
-0.118413
-0.116685
-0.114417
-0.111649
-0.108691
-0.106023
-0.104019
-0.102921
-0.102725
-0.103212
-0.103997
-0.104659
-0.104911
-0.104608
-0.103771
-0.102644
-0.101546
-0.100792
-0.100527
-0.100627
-0.100845
-0.100835
-0.100348
-0.0994264
-0.09826
-0.0972396
-0.0966848
-0.096814
-0.0975394
-0.098729
-0.100095
-0.101384
-0.10246
-0.103276
-0.10385
-0.104205
-0.104359
-0.104428
-0.104419
-0.104375
-0.10437
-0.104394
-0.104534
-0.10481
-0.105317
-0.106153
-0.10738
-0.10905
-0.111026
-0.11297
-0.114382
-0.114491
-0.112567
-0.107835
-0.0997745
-0.0882036
-0.0733556
-0.0559951
-0.0371774
-0.0182307
-0.000250364
0.0159231
0.029845
0.0415993
0.0514495
0.0597647
0.0668825
0.0729522
0.0780811
0.0823356
0.0859014
0.0890085
0.0918826
0.0947161
0.0975657
0.100383
0.103071
0.105547
0.107759
0.109581
0.110855
0.111456
0.111114
0.109753
0.107377
0.104332
0.100942
0.0976303
0.0947392
0.0924375
0.090797
0.0897244
0.0890718
0.0885237
0.087841
0.0867404
0.0850037
0.0826327
0.0797469
0.0764786
0.0729771
0.0693641
0.0657251
0.062118
0.0587441
0.0558668
0.0537302
0.0524348
0.0517861
0.0513751
0.0506584
0.0492298
0.0468997
0.0438247
0.0404361
0.0372305
0.0346303
0.0328507
0.0317517
0.0310542
0.0302706
0.028938
0.0267959
0.0236657
0.0195657
0.0146573
0.00929079
0.00386149
-0.00126955
-0.00575074
-0.00942954
-0.0122366
-0.0140829
-0.0150581
-0.0152079
-0.0146675
-0.0135875
-0.0122296
-0.0108558
-0.00973452
-0.00914334
-0.00912465
-0.009763
-0.011015
-0.0127872
-0.0149193
-0.0171923
-0.0192204
-0.0207174
-0.0214616
-0.0213578
-0.0204467
-0.0189751
-0.0172987
-0.0157528
-0.0146178
-0.0141221
-0.0141574
-0.0145763
-0.0148742
-0.0144572
-0.0125859
-0.00867232
-0.00256582
0.00534893
0.0142245
0.0230431
0.0307526
0.0369681
0.0418198
0.0460129
0.0504827
0.055806
0.0619086
0.068224
0.0737643
0.0775796
0.0790576
0.0780634
0.075002
0.0706462
0.0659592
0.062103
0.0600695
0.0606556
0.0639029
0.0690715
0.0744377
0.0777124
0.0767626
0.070255
0.0582238
0.04193
0.0236378
0.00563293
-0.0102021
-0.0228676
-0.0323613
-0.0391461
-0.0439164
-0.0472966
-0.0496549
-0.051256
-0.052236
-0.0526934
-0.0526894
-0.0523191
-0.051574
-0.0504455
-0.0489039
-0.0470155
-0.0449154
-0.0427968
-0.0409223
-0.0394488
-0.0385738
-0.0382323
-0.0384407
-0.0395084
-0.0424048
-0.0487233
-0.0604583
-0.0793439
-0.10618
-0.139643
-0.175489
-0.206512
-0.22285
-0.212899
-0.164928
-0.0696328
0.0765874
0.268345
0.488731
0.709398
0.89445
1.00827
1.02524
0.93818
0.762032
0.530636
0.287585
0.0738506
-0.0828307
-0.173448
-0.206206
-0.200088
-0.176381
-0.152006
-0.135758
-0.129246
-0.129854
-0.133614
-0.137511
-0.140023
-0.141048
-0.141173
-0.141076
-0.141225
-0.141952
-0.143267
-0.144982
-0.146766
-0.148165
-0.148813
-0.148466
-0.147113
-0.144863
-0.141914
-0.138571
-0.135054
-0.131625
-0.128508
-0.125925
-0.123857
-0.122222
-0.12083
-0.11935
-0.117642
-0.115615
-0.113482
-0.111617
-0.110431
-0.110167
-0.110888
-0.112283
-0.11392
-0.115195
-0.115526
-0.114572
-0.112196
-0.108607
-0.104245
-0.0997111
-0.0955845
-0.0922534
-0.0899652
-0.0886441
-0.0880813
-0.088002
-0.0880949
-0.0882406
-0.0883368
-0.0884029
-0.0884949
-0.0886902
-0.0891439
-0.0899547
-0.0912215
-0.0929841
-0.0951814
-0.0976699
-0.100058
-0.101915
-0.102858
-0.102567
-0.101008
-0.0985144
-0.0956832
-0.0932747
-0.091946
-0.0921395
-0.0937709
-0.0964733
-0.0994269
-0.101732
-0.102602
-0.101315
-0.0974613
-0.0909182
-0.0817716
-0.0704116
-0.0573895
-0.0435009
-0.0295323
-0.0162186
-0.00392256
0.00724967
0.0173302
0.026483
0.0347917
0.0422707
0.0488875
0.0547951
0.0602568
0.0655781
0.071001
0.0765079
0.081874
0.0867574
0.0907824
0.0938777
0.0961446
0.0978278
0.0991784
0.100385
0.101488
0.102493
0.103404
0.104245
0.105058
0.105848
0.106443
0.106611
0.106162
0.104888
0.102707
0.0996377
0.0957381
0.0910779
0.0857254
0.0800011
0.0742312
0.068997
0.0647583
0.0619142
0.0604357
0.0599352
0.0598111
0.0594431
0.0584601
0.056769
0.0545161
0.0520192
0.0494447
0.0468487
0.044052
0.0407843
0.0367965
0.0320864
0.0268908
0.0216751
0.0170572
0.0135254
0.0112621
0.0100694
0.00934475
0.00827229
0.00619796
0.00278649
-0.0016643
-0.00657164
-0.0110219
-0.0143125
-0.0160523
-0.0162793
-0.0153694
-0.013841
-0.0120918
-0.0105025
-0.00925899
-0.00843309
-0.008093
-0.0082427
-0.00883202
-0.00975484
-0.0109627
-0.0123626
-0.0139134
-0.0155844
-0.0171658
-0.0184722
-0.019189
-0.0192431
-0.018775
-0.0182554
-0.0183519
-0.0196552
-0.0224702
-0.026575
-0.0311954
-0.0352658
-0.0375996
-0.0372603
-0.0338034
-0.0272516
-0.0181726
-0.00752238
0.00358909
0.0142282
0.0237338
0.0318015
0.0386335
0.0445773
0.0500975
0.0554838
0.0606541
0.0652509
0.0687167
0.0706143
0.0707979
0.0695349
0.0673353
0.0648279
0.0624408
0.0603416
0.0584345
0.0566297
0.054958
0.0536673
0.0530189
0.0529967
0.0531467
0.05246
0.0497352
0.0438543
0.0343177
0.0214514
0.00636056
-0.00919001
-0.0233815
-0.0346274
-0.0420061
-0.04533
-0.0450617
-0.0422365
-0.0382572
-0.0346232
-0.032535
-0.032807
-0.0356666
-0.0407611
-0.0472576
-0.0541129
-0.0604122
-0.0655576
-0.0692804
-0.071649
-0.0728109
-0.0728218
-0.0717437
-0.0696138
-0.0666947
-0.0635205
-0.0611426
-0.0611066
-0.0651375
-0.0748678
-0.0913451
-0.114596
-0.143319
-0.174173
-0.2017
-0.218317
-0.2147
-0.180598
-0.10652
0.0135142
0.178784
0.378624
0.59116
0.785126
0.925588
0.982704
0.940609
0.803362
0.59537
0.355155
0.124818
-0.0612475
-0.184399
-0.243803
-0.252817
-0.231706
-0.200112
-0.171853
-0.153208
-0.144555
-0.142998
-0.144865
-0.147469
-0.149405
-0.150363
-0.150449
-0.15001
-0.14934
-0.148729
-0.148376
-0.148283
-0.148344
-0.148215
-0.147521
-0.145945
-0.143339
-0.139776
-0.135588
-0.131287
-0.127382
-0.12431
-0.122292
-0.121334
-0.12119
-0.121494
-0.121773
-0.121588
-0.120652
-0.118912
-0.116599
-0.114162
-0.11205
-0.110683
-0.110165
-0.110373
-0.110999
-0.111732
-0.11237
-0.112943
-0.113549
-0.114355
-0.115336
-0.116259
-0.116769
-0.116552
-0.115495
-0.113688
-0.111457
-0.109073
-0.106762
-0.10457
-0.102399
-0.100165
-0.0979112
-0.0957344
-0.0938652
-0.0924871
-0.0915939
-0.0910482
-0.0907089
-0.0903668
-0.0900676
-0.0900302
-0.0906133
-0.0921397
-0.094841
-0.0986224
-0.10317
-0.107946
-0.112464
-0.116297
-0.119297
-0.121489
-0.123001
-0.124017
-0.1246
-0.124646
-0.123861
-0.121737
-0.117627
-0.110985
-0.101495
-0.0891031
-0.0745108
-0.0588089
-0.0434067
-0.0297327
-0.0187972
-0.010919
-0.00552875
-0.00153468
0.00257525
0.00807608
0.0157498
0.0256012
0.0368568
0.0482726
0.0586348
0.066982
0.0730446
0.0772338
0.0803837
0.0834735
0.0870454
0.091184
0.0953077
0.0985809
0.100318
0.100119
0.0982173
0.095222
0.0918555
0.0886896
0.0860719
0.0841732
0.0829561
0.0825434
0.0830152
0.0843773
0.0863552
0.088271
0.0893157
0.0887017
0.0860023
0.0815345
0.0761942
0.0711695
0.0674591
0.0654782
0.0649113
0.0647377
0.0638372
0.0613782
0.0571002
0.0513832
0.0449387
0.0384118
0.0323252
0.0269772
0.0226084
0.0194179
0.0176444
0.0173842
0.0184206
0.0203119
0.0224668
0.0243305
0.0255679
0.0261426
0.0262398
0.0260257
0.0255644
0.0247621
0.0235145
0.0217594
0.0196584
0.0174948
0.0155912
0.0141108
0.0128839
0.0115431
0.00953476
0.00653768
0.00260145
-0.00177466
-0.00568566
-0.00834056
-0.00931075
-0.00874286
-0.00718734
-0.00535255
-0.00379283
-0.00263135
-0.00172568
-0.000771713
0.000319185
0.00136457
0.00191271
0.00153616
0.000138695
-0.00202864
-0.00428815
-0.00577797
-0.00572963
-0.00381769
-5.4751e-5
0.00505776
0.0108763
0.016684
0.0221103
0.0272005
0.0322332
0.0377379
0.0440622
0.0511894
0.0586044
0.0654779
0.0708854
0.0742113
0.0753947
0.0748232
0.0732312
0.0713546
0.0697081
0.0684242
0.0673745
0.0662996
0.0650521
0.0637981
0.0628825
0.0626109
0.0629763
0.063384
0.0626489
0.0594496
0.0525641
0.0414667
0.026679
0.00961783
-0.00769216
-0.0232167
-0.0354614
-0.0437006
-0.0480571
-0.0492769
-0.0484452
-0.0467459
-0.0451578
-0.0443198
-0.0444917
-0.0455836
-0.047243
-0.0490242
-0.0504622
-0.0511874
-0.0511373
-0.0503273
-0.0489125
-0.047156
-0.0454115
-0.0442156
-0.0441295
-0.0457569
-0.0497352
-0.0566053
-0.0668907
-0.0809424
-0.0989327
-0.120795
-0.145899
-0.172469
-0.197036
-0.214006
-0.215805
-0.193104
-0.135914
-0.0356278
0.111639
0.301785
0.519777
0.739031
0.924744
1.04115
1.06116
0.97549
0.797055
0.558708
0.304472
0.077167
-0.0927791
-0.193699
-0.23208
-0.226589
-0.199366
-0.168785
-0.145387
-0.132146
-0.127187
-0.126976
-0.128294
-0.129339
-0.129466
-0.128674
-0.127069
-0.124672
-0.121665
-0.118353
-0.11512
-0.112297
-0.110008
-0.108182
-0.106744
-0.105521
-0.104461
-0.103528
-0.102734
-0.10207
-0.101407
-0.100625
-0.099704
-0.0986885
-0.0977823
-0.0972532
-0.0973035
-0.0979466
-0.09911
-0.1004
-0.101457
-0.101861
-0.101296
-0.0996969
-0.0971649
-0.0939582
-0.0905235
-0.0872639
-0.0845427
-0.0826089
-0.0814298
-0.0808055
-0.0805028
-0.0802626
-0.0799899
-0.0796991
-0.0794792
-0.0793785
-0.0793743
-0.0793888
-0.0793906
-0.0794009
-0.0796394
-0.0803156
-0.0815547
-0.0833128
-0.0853207
-0.0872119
-0.0886639
-0.0895168
-0.0897722
-0.0896357
-0.0892959
-0.0889939
-0.0887741
-0.088679
-0.0886552
-0.0887539
-0.0890233
-0.0896877
-0.090985
-0.0930897
-0.0961663
-0.100152
-0.104752
-0.109434
-0.113413
-0.11584
-0.115875
-0.112846
-0.106425
-0.0967834
-0.0843816
-0.0700643
-0.0547686
-0.0393151
-0.0243188
-0.0101072
0.0032771
0.0160623
0.0284776
0.0407286
0.0529207
0.0649692
0.0765442
0.087215
0.0965403
0.104127
0.109836
0.113721
0.116042
0.11728
0.117882
0.118329
0.118968
0.11997
0.121393
0.12321
0.125223
0.12712
0.128516
0.129048
0.128514
0.127065
0.125129
0.123211
0.121827
0.12122
0.121183
0.121217
0.120689
0.119158
0.116492
0.112939
0.108943
0.104992
0.101399
0.0981639
0.095226
0.092313
0.0893352
0.0863642
0.0835818
0.0812679
0.0795242
0.0783764
0.0775918
0.0768875
0.0760323
0.0748526
0.0733515
0.0716969
0.0699778
0.0682826
0.0666259
0.0648833
0.0629866
0.0608714
0.0585133
0.0559881
0.0534073
0.050781
0.0481095
0.0453299
0.0423054
0.0390259
0.0355405
0.0319622
0.0285057
0.0252944
0.0224756
0.0200677
0.0181498
0.0167718
0.0159993
0.0159022
0.0164157
0.0173658
0.0185118
0.0195331
0.0201607
0.0203276
0.0200814
0.0195525
0.0189193
0.0182812
0.0175547
0.0165854
0.0151302
0.0129511
0.00995031
0.00609373
0.00160862
-0.00318384
-0.00785193
-0.0118937
-0.0148315
-0.0163198
-0.0161986
-0.0145837
-0.011839
-0.0084025
-0.00481078
-0.00153833
0.00105217
0.00285646
0.0039337
0.00460835
0.00544393
0.00718201
0.0104271
0.0154816
0.0222322
0.0301137
0.0382658
0.0459239
0.0526009
0.0583497
0.0635386
0.0687598
0.0745211
0.0808779
0.087459
0.0935453
0.0983184
0.101088
0.101557
0.0997126
0.0959982
0.0910584
0.0857268
0.080947
0.0776298
0.0765941
0.0782259
0.0821501
0.0872931
0.0919996
0.0943506
0.0929212
0.0870966
0.0772536
0.0646404
0.0508224
0.0373684
0.0252619
0.0148433
0.00596742
-0.00171755
-0.00857527
-0.0148023
-0.0203517
-0.0250676
-0.0287277
-0.0312171
-0.0325613
-0.0328378
-0.0324414
-0.031678
-0.0309207
-0.0304655
-0.0304392
-0.0308615
-0.0316826
-0.0326914
-0.0337045
-0.0345592
-0.0351607
-0.0355844
-0.0360827
-0.037373
-0.040574
-0.0471651
-0.0587559
-0.0765911
-0.101012
-0.130746
-0.16239
-0.190149
-0.206014
-0.20078
-0.164983
-0.0905176
0.0281399
0.192002
0.395883
0.62709
0.864724
1.08108
1.24492
1.32759
1.30985
1.18827
0.977825
0.70997
0.425557
0.165108
-0.0406431
-0.176913
-0.24563
-0.261769
-0.246281
-0.219165
-0.194605
-0.179251
-0.173705
-0.1748
-0.178531
-0.181769
-0.183029
-0.182211
-0.180051
-0.177649
-0.175975
-0.175726
-0.176986
-0.179403
-0.182209
-0.184542
-0.185652
-0.185223
-0.183351
-0.180518
-0.177277
-0.174044
-0.171132
-0.168474
-0.165926
-0.163312
-0.160456
-0.157298
-0.153882
-0.150366
-0.146942
-0.143775
-0.14094
-0.138546
-0.136617
-0.135194
-0.134273
-0.133811
-0.133759
-0.133995
-0.134326
-0.13459
-0.134647
-0.134543
-0.134374
-0.134315
-0.134652
-0.135623
-0.137235
-0.139369
-0.141706
-0.143752
-0.144903
-0.144746
-0.143114
-0.140197
-0.136448
-0.132471
-0.128803
-0.125715
-0.123187
-0.120967
-0.118743
-0.116363
-0.113927
-0.111728
-0.110163
-0.109627
-0.110413
-0.112445
-0.115585
-0.119439
-0.123525
-0.127277
-0.130273
-0.132256
-0.133055
-0.132512
-0.130376
-0.126224
-0.119561
-0.109934
-0.0972193
-0.0818469
-0.064849
-0.047549
-0.0314308
-0.017582
-0.00660095
0.00149069
0.0071574
0.0110579
0.0138267
0.015971
0.0178496
0.0196491
0.0216254
0.0239963
0.027069
0.0311062
0.0362538
0.0424653
0.0495171
0.0570769
0.0646819
0.071863
0.0783728
0.0840944
0.0890935
0.0935908
0.0978346
0.10188
0.105682
0.108964
0.111455
0.113024
0.113664
0.113563
0.112928
0.111958
0.11076
0.109388
0.107843
0.106161
0.104449
0.102805
0.101229
0.0996223
0.0978644
0.0958229
0.093456
0.090985
0.0886993
0.0868885
0.0857706
0.0853604
0.0854762
0.0857398
0.0858495
0.085582
0.0849155
0.0839553
0.0828185
0.0815911
0.0801637
0.0784124
0.0761623
0.0732713
0.0696908
0.0655134
0.0609816
0.0562485
0.051506
0.0469533
0.042592
0.0383901
0.0343137
0.0303463
0.0264701
0.0228237
0.019584
0.0169173
0.0149906
0.0138153
0.0132777
0.0131383
0.0130953
0.0128707
0.0122996
0.0113396
0.010064
0.00851204
0.0067838
0.00492423
0.00303918
0.00129289
-0.000301382
-0.0015524
-0.00242601
-0.0031372
-0.00388618
-0.00503258
-0.00680114
-0.00923478
-0.01215
-0.0152567
-0.018295
-0.021061
-0.0235117
-0.0256849
-0.0276152
-0.0292307
-0.0301572
-0.0300154
-0.0284082
-0.025363
-0.0211106
-0.0162313
-0.0114762
-0.00742093
-0.00448881
-0.00273655
-0.00187596
-0.00143237
-0.00074245
0.000871716
0.00391167
0.00868266
0.0151383
0.0227656
0.0308172
0.038397
0.0448006
0.0496286
0.0527722
0.0545779
0.0555432
0.0563518
0.057531
0.0595734
0.06272
0.0670602
0.0722987
0.0778399
0.0828754
0.0865057
0.0880521
0.0872346
0.0843262
0.0800405
0.0753498
0.0711529
0.0681099
0.0665989
0.0668697
0.068952
0.07263
0.0771767
0.0813633
0.0835154
0.0820296
0.0757224
0.0643886
0.0488513
0.0307679
0.0120827
-0.00547396
-0.0207132
-0.0330823
-0.0425343
-0.0492789
-0.0537088
-0.0562606
-0.0574965
-0.0578434
-0.0576679
-0.0572383
-0.0567064
-0.0560857
-0.0554251
-0.0548257
-0.0543715
-0.0540973
-0.0538622
-0.0534165
-0.0524912
-0.0510724
-0.0494483
-0.0483932
-0.0492382
-0.0536345
-0.0633387
-0.0797951
-0.103602
-0.133889
-0.167751
-0.199865
-0.222735
-0.227574
-0.205832
-0.150951
-0.0599969
0.06538
0.219249
0.392473
0.574765
0.755995
0.92664
1.07672
1.19409
1.26374
1.26957
1.19918
1.0497
0.832385
0.573106
0.307358
0.0714082
-0.107481
-0.21774
-0.26462
-0.265717
-0.243227
-0.216422
-0.19707
-0.18871
-0.189325
-0.194628
-0.200669
-0.205158
-0.207422
-0.207662
-0.20639
-0.204016
-0.201007
-0.197802
-0.194889
-0.192645
-0.191298
-0.190751
-0.190741
-0.190906
-0.190865
-0.1904
-0.189398
-0.187876
-0.186086
-0.184149
-0.182247
-0.18047
-0.178823
-0.177312
-0.17592
-0.174685
-0.17373
-0.173256
-0.173291
-0.173959
-0.17507
-0.176381
-0.177555
-0.178188
-0.177961
-0.176687
-0.174447
-0.171515
-0.168324
-0.165295
-0.162738
-0.160739
-0.15918
-0.157917
-0.156711
-0.155643
-0.154793
-0.154332
-0.15432
-0.154742
-0.155381
-0.155967
-0.156329
-0.156371
-0.156239
-0.15605
-0.156072
-0.156498
-0.157291
-0.158379
-0.159654
-0.160982
-0.162222
-0.163335
-0.164305
-0.165045
-0.165517
-0.165634
-0.165282
-0.164355
-0.162757
-0.160225
-0.156562
-0.151476
-0.144777
-0.13631
-0.126089
-0.11423
-0.100954
-0.0866129
-0.0717467
-0.0571115
-0.0435901
-0.0319965
-0.0229511
-0.016573
-0.012387
-0.00943077
-0.00646602
-0.0023384
0.00366993
0.0116109
0.021044
0.0311456
0.0410841
0.0502704
0.0583882
0.0654313
0.0714482
0.0764448
0.0804298
0.083317
0.0851308
0.0860248
0.0863149
0.0864017
0.0865939
0.0869858
0.0874901
0.0879432
0.0881664
0.0880711
0.0877828
0.0874339
0.0871664
0.0868729
0.0863899
0.0854246
0.0837052
0.0813065
0.078482
0.0756713
0.0733646
0.0717779
0.0708687
0.0703623
0.0698058
0.0687348
0.0668882
0.0641822
0.0608397
0.057168
0.0535367
0.0502251
0.0473991
0.0449085
0.042528
0.0399492
0.0368972
0.0332417
0.0290716
0.0247984
0.020862
0.0177863
0.0159368
0.0153504
0.0157466
0.0166529
0.0174448
0.0176376
0.016994
0.0156358
0.0138184
0.011946
0.010289
0.0089187
0.00758475
0.00591596
0.00353561
0.000393288
-0.00328257
-0.00675953
-0.00917634
-0.00985037
-0.00867759
-0.00608325
-0.00308916
-0.000829002
-0.000164323
-0.00140281
-0.00423819
-0.00800569
-0.0119161
-0.0154791
-0.0184684
-0.0209556
-0.023064
-0.0248258
-0.02608
-0.026527
-0.0260152
-0.0245983
-0.0225078
-0.0202505
-0.0182566
-0.0168769
-0.0161118
-0.0158155
-0.0157552
-0.0157342
-0.0156604
-0.015704
-0.0161255
-0.0172215
-0.0190462
-0.0214162
-0.0237024
-0.0249994
-0.0242897
-0.0207483
-0.0140786
-0.00464015
0.00669451
0.0186313
0.0299046
0.0395877
0.0472717
0.0531231
0.0576987
0.0618413
0.0661801
0.0709499
0.0757791
0.0799054
0.0823828
0.08246
0.0798629
0.0749805
0.0686901
0.0621761
0.0564507
0.0523906
0.0504405
0.0507427
0.0529924
0.0564104
0.0598188
0.0617938
0.0609877
0.0564818
0.0480552
0.0362266
0.0220571
0.00682601
-0.00826069
-0.0224151
-0.0351083
-0.046002
-0.0547359
-0.0610391
-0.064788
-0.06622
-0.0659317
-0.0647875
-0.0636976
-0.0633703
-0.0640202
-0.0654753
-0.0672078
-0.0686088
-0.069298
-0.069126
-0.068215
-0.0668264
-0.065207
-0.0635056
-0.0616449
-0.0595615
-0.0572017
-0.054707
-0.0526926
-0.0522687
-0.0551364
-0.0631285
-0.0779138
-0.100369
-0.130262
-0.165507
-0.201794
-0.232719
-0.249773
-0.242847
-0.201095
-0.115089
0.0200879
0.200977
0.412911
0.629239
0.814783
0.933575
0.958625
0.880929
0.713522
0.488949
0.250211
0.038586
-0.117262
-0.207006
-0.237728
-0.227803
-0.198609
-0.167582
-0.144543
-0.132068
-0.128323
-0.129871
-0.133796
-0.138271
-0.14249
-0.145903
-0.148021
-0.148377
-0.146925
-0.14416
-0.140814
-0.137761
-0.13544
-0.133814
-0.132394
-0.130565
-0.12783
-0.124162
-0.119937
-0.115835
-0.112516
-0.110514
-0.109973
-0.110746
-0.112371
-0.114337
-0.116084
-0.117241
-0.117601
-0.117101
-0.115778
-0.1137
-0.11096
-0.107621
-0.103772
-0.0995604
-0.0952063
-0.0911035
-0.0877437
-0.0855687
-0.0848987
-0.085763
-0.0879311
-0.0908291
-0.0938013
-0.0961628
-0.0975943
-0.0980708
-0.0980824
-0.098243
-0.0990995
-0.100794
-0.103033
-0.105079
-0.105935
-0.104882
-0.101581
-0.096297
-0.0897103
-0.0827396
-0.0762638
-0.0708867
-0.0671045
-0.0650612
-0.0647599
-0.0660509
-0.0686335
-0.0720965
-0.076072
-0.0802352
-0.0844313
-0.088824
-0.0936224
-0.0990778
-0.105175
-0.11156
-0.117499
-0.121906
-0.123642
-0.121766
-0.11587
-0.106149
-0.0934166
-0.0789545
-0.0642404
-0.050617
-0.0390609
-0.0299224
-0.0227934
-0.01683
-0.0108864
-0.0038901
0.00470901
0.0148102
0.0257952
0.0367051
0.0466879
0.0552822
0.0625122
0.0686488
0.0741015
0.0790462
0.0834468
0.0869751
0.0893559
0.0905608
0.0906883
0.0901485
0.089384
0.0887192
0.0882681
0.0878887
0.0873872
0.0864048
0.0845471
0.0816532
0.0777672
0.0731234
0.0682866
0.0639653
0.0608069
0.0591797
0.0589685
0.0597419
0.0607749
0.0614886
0.0614538
0.0607467
0.0597014
0.0587382
0.0581816
0.0579783
0.0579899
0.0578411
0.0571993
0.0559011
0.0540648
0.0520328
0.0500425
0.0483024
0.0466509
0.0446186
0.041653
0.037363
0.0317662
0.0253696
0.0190271
0.0135836
0.00960194
0.00710247
0.00567246
0.00462182
0.00345053
0.00195013
0.00020534
-0.00144055
-0.00280742
-0.00381435
-0.00460751
-0.00535917
-0.00612769
-0.00675354
-0.00702797
-0.00683173
-0.00614209
-0.00520034
-0.00434084
-0.00385917
-0.00404141
-0.0049943
-0.00668625
-0.00902457
-0.0117597
-0.0145897
-0.0170913
-0.01899
-0.0202519
-0.0211175
-0.0219515
-0.0231379
-0.0247818
-0.0266398
-0.028149
-0.0287025
-0.0278833
-0.0257406
-0.0227602
-0.0196836
-0.0172503
-0.0157738
-0.0150502
-0.0143907
-0.0128592
-0.00957145
-0.00407372
0.00346282
0.0121937
0.02104
0.0288879
0.0350315
0.0393422
0.0422495
0.0445684
0.0471418
0.0505232
0.0548537
0.0598136
0.0646597
0.068666
0.0711978
0.0720146
0.0714445
0.0702072
0.0691844
0.0691271
0.0702655
0.0720608
0.0733576
0.072916
0.0698175
0.0640736
0.0567003
0.0496066
0.0447123
0.0432559
0.0452404
0.0492439
0.0529738
0.0538448
0.0500636
0.0409921
0.0272972
0.0106101
-0.00704143
-0.0239529
-0.0389606
-0.0515336
-0.0616009
-0.0691362
-0.0741606
-0.076688
-0.0769441
-0.0753081
-0.0723618
-0.0688041
-0.0652543
-0.0621078
-0.0595121
-0.0575334
-0.0562142
-0.0554809
-0.0551988
-0.0550764
-0.0548078
-0.0540735
-0.0530623
-0.0525821
-0.0541031
-0.0597166
-0.0715804
-0.0911806
-0.118571
-0.151541
-0.185118
-0.211904
-0.222784
-0.207981
-0.158219
-0.066484
0.0700517
0.247718
0.454225
0.667665
0.858058
0.992321
1.04226
0.992809
0.848229
0.632653
0.384501
0.146147
-0.0474201
-0.176793
-0.240812
-0.252915
-0.233782
-0.203495
-0.176047
-0.157593
-0.148225
-0.144971
-0.144459
-0.144475
-0.144296
-0.144038
-0.143934
-0.143972
-0.143811
-0.143079
-0.141503
-0.138994
-0.135866
-0.132603
-0.129896
-0.128271
-0.127958
-0.128727
-0.129977
-0.130978
-0.131053
-0.129879
-0.127561
-0.12462
-0.121582
-0.119007
-0.117187
-0.116136
-0.115665
-0.115471
-0.115234
-0.114691
-0.113684
-0.112093
-0.109975
-0.10745
-0.104633
-0.101816
-0.0991849
-0.0970542
-0.0955815
-0.094875
-0.0949046
-0.0955006
-0.0964566
-0.0975186
-0.0984951
-0.0993441
-0.100091
-0.100817
-0.101577
-0.102244
-0.102575
-0.102204
-0.100915
-0.0986302
-0.0956159
-0.0923461
-0.0894461
-0.0874502
-0.0867222
-0.0871936
-0.0886733
-0.0906844
-0.0928844
-0.0949278
-0.0967519
-0.0985327
-0.100461
-0.102811
-0.105707
-0.109152
-0.113065
-0.117189
-0.121252
-0.124833
-0.127413
-0.128418
-0.127255
-0.123512
-0.116873
-0.107547
-0.0960963
-0.0835087
-0.0709422
-0.0595803
-0.0501983
-0.0432323
-0.0384291
-0.0351216
-0.032344
-0.0291119
-0.0246581
-0.0184283
-0.0103166
-0.00044752
0.0108149
0.0229385
0.0352973
0.0473392
0.058635
0.0690214
0.0785247
0.0873036
0.0955193
0.103302
0.110465
0.116755
0.12193
0.125867
0.128551
0.130248
0.131204
0.131682
0.131754
0.13139
0.130496
0.129022
0.127097
0.124946
0.122983
0.121503
0.120735
0.120681
0.121156
0.12172
0.121962
0.121508
0.120178
0.118007
0.115203
0.111975
0.10854
0.10495
0.101148
0.097088
0.0929674
0.0890994
0.0859288
0.083804
0.0828511
0.0828479
0.0833228
0.0836487
0.083232
0.0816797
0.0788877
0.0751137
0.0708067
0.0665295
0.0627804
0.0598891
0.0578258
0.0562672
0.0547549
0.0527316
0.050013
0.0466163
0.0428448
0.0391493
0.035985
0.0335758
0.0319353
0.0308755
0.0301302
0.0294715
0.0287415
0.0278764
0.0268881
0.0257767
0.024558
0.0232293
0.0217794
0.0201734
0.0184112
0.016519
0.0145161
0.0124765
0.0104899
0.00864716
0.00687832
0.00525084
0.0036081
0.00196548
0.000382887
-0.000921711
-0.00185639
-0.00235013
-0.00253194
-0.00268915
-0.00314569
-0.00409471
-0.00555002
-0.00729848
-0.0090379
-0.0104023
-0.0111582
-0.0112302
-0.0106583
-0.00959819
-0.0082177
-0.00676765
-0.0054288
-0.0044276
-0.0037505
-0.00326023
-0.00247777
-0.000801594
0.0024437
0.00773025
0.0150776
0.0240134
0.0337644
0.0433817
0.0521658
0.0598007
0.0664033
0.0723321
0.0779844
0.0835858
0.089035
0.0939419
0.0977492
0.100075
0.100578
0.0993429
0.0966089
0.0927707
0.0882481
0.0835451
0.079064
0.0754397
0.0733841
0.0734191
0.0756407
0.0793197
0.0829987
0.0846757
0.0824746
0.0753433
0.063348
0.0476556
0.030221
0.0131119
-0.00209018
-0.0146242
-0.0243319
-0.0315119
-0.0365556
-0.0398575
-0.041634
-0.0421817
-0.0418826
-0.0410879
-0.0402587
-0.0397852
-0.0398726
-0.0406507
-0.0420663
-0.0439941
-0.0462607
-0.0486044
-0.0508816
-0.0528244
-0.0541381
-0.0546679
-0.0543897
-0.0534526
-0.0524171
-0.052267
-0.0544073
-0.0605322
-0.0723242
-0.0909004
-0.116449
-0.147706
-0.181356
-0.211666
-0.230665
-0.228617
-0.194799
-0.119041
0.00579727
0.180928
0.398318
0.638706
0.871864
1.06061
1.16861
1.17006
1.05808
0.848865
0.578654
0.294598
0.0422808
-0.145845
-0.256931
-0.297455
-0.287273
-0.251042
-0.210041
-0.17766
-0.158779
-0.152168
-0.153535
-0.158288
-0.162985
-0.165914
-0.166673
-0.165656
-0.163613
-0.161317
-0.159372
-0.158104
-0.15738
-0.156904
-0.15624
-0.155154
-0.153621
-0.151853
-0.15005
-0.148395
-0.146857
-0.14525
-0.143441
-0.141336
-0.138984
-0.136516
-0.134104
-0.131814
-0.129645
-0.127536
-0.125495
-0.123606
-0.121984
-0.12076
-0.120052
-0.119821
-0.119872
-0.119926
-0.119725
-0.119073
-0.117915
-0.116434
-0.114954
-0.113776
-0.113157
-0.113051
-0.113243
-0.113329
-0.112886
-0.111603
-0.109462
-0.106748
-0.103888
-0.10141
-0.0997308
-0.0990624
-0.0993838
-0.100402
-0.101799
-0.103272
-0.104562
-0.105572
-0.106336
-0.106949
-0.10751
-0.10799
-0.108417
-0.108723
-0.108838
-0.108896
-0.109087
-0.109739
-0.111089
-0.113134
-0.115584
-0.117744
-0.118666
-0.117364
-0.113084
-0.105369
-0.0942665
-0.0801842
-0.0639194
-0.0464775
-0.0288598
-0.0119242
0.00374356
0.0178738
0.0305226
0.0418342
0.0520608
0.0611797
0.0691538
0.0758514
0.0811187
0.0850338
0.0877733
0.0897753
0.091523
0.0933535
0.0956347
0.0983226
0.101179
0.103847
0.106023
0.107433
0.108082
0.108002
0.107472
0.106638
0.105643
0.104485
0.103116
0.101496
0.0996084
0.0976577
0.0956999
0.0938947
0.0922397
0.0906691
0.0889899
0.0870879
0.084836
0.082281
0.0795039
0.0766855
0.0738483
0.0710378
0.0682643
0.0655491
0.0628374
0.0601536
0.0574506
0.0547553
0.0519429
0.0490321
0.0460498
0.043029
0.0400144
0.0370016
0.033936
0.030721
0.0273084
0.023746
0.0201934
0.0168279
0.0138734
0.0114212
0.00951212
0.00794926
0.00657888
0.0051217
0.00345594
0.00157983
-0.000473399
-0.0026369
-0.00474025
-0.0066568
-0.0083764
-0.00987807
-0.0112156
-0.0124536
-0.0137129
-0.0149524
-0.0161529
-0.0172298
-0.0180505
-0.0185397
-0.0186922
-0.0185927
-0.0183866
-0.0182708
-0.0184479
-0.0190849
-0.0202106
-0.0216586
-0.023158
-0.0242782
-0.0246089
-0.0239272
-0.0222928
-0.019961
-0.0174907
-0.0154249
-0.0140649
-0.0134986
-0.01345
-0.013351
-0.0125011
-0.0103033
-0.00640934
-0.000719952
0.00645481
0.0145268
0.0228491
0.0308724
0.0382533
0.0449437
0.0511
0.0569889
0.0628623
0.0686524
0.0741297
0.0788005
0.0821188
0.0836041
0.0829873
0.0802277
0.0756314
0.069761
0.0634628
0.0578185
0.0540318
0.053012
0.0550288
0.0594255
0.0645293
0.0680778
0.0679056
0.0625295
0.0517415
0.0366127
0.0191126
0.00145905
-0.0144053
-0.027325
-0.0370396
-0.0437914
-0.0481876
-0.0508096
-0.0521805
-0.0526959
-0.0526779
-0.0523861
-0.0521636
-0.0522766
-0.0528867
-0.0540445
-0.0555964
-0.0572427
-0.058587
-0.0593784
-0.0592919
-0.0582181
-0.0562778
-0.0538253
-0.0513919
-0.0498387
-0.050225
-0.0538546
-0.0620662
-0.0760212
-0.0963427
-0.122772
-0.153836
-0.186058
-0.213686
-0.228961
-0.222499
-0.184361
-0.105307
0.0205491
0.192866
0.402274
0.628712
0.842278
1.00759
1.09191
1.07417
0.952669
0.74742
0.495962
0.243125
0.0287603
-0.122275
-0.204428
-0.229101
-0.217311
-0.191016
-0.16655
-0.151603
-0.146731
-0.148612
-0.153182
-0.157543
-0.160397
-0.161644
-0.161645
-0.160766
-0.159191
-0.15713
-0.154892
-0.152662
-0.150671
-0.148944
-0.147443
-0.146032
-0.144595
-0.143083
-0.141457
-0.139805
-0.138214
-0.13673
-0.135432
-0.134392
-0.133557
-0.132827
-0.131974
-0.130693
-0.128798
-0.126191
-0.123024
-0.119652
-0.116518
-0.114009
-0.112224
-0.110999
-0.110086
-0.109139
-0.108076
-0.107033
-0.106276
-0.106193
-0.106988
-0.108595
-0.110657
-0.112673
-0.114114
-0.11467
-0.114215
-0.112831
-0.11076
-0.108216
-0.105344
-0.102272
-0.0990622
-0.0958957
-0.0929702
-0.0906855
-0.0893472
-0.0890506
-0.0898664
-0.0915617
-0.0937469
-0.0960372
-0.0980789
-0.09967
-0.100938
-0.102115
-0.103572
-0.105503
-0.107939
-0.110643
-0.113168
-0.115069
-0.115921
-0.115476
-0.113596
-0.110126
-0.104877
-0.097626
-0.088103
-0.0763442
-0.0626292
-0.0475779
-0.0320624
-0.0170956
-0.00341071
0.00852161
0.0187382
0.0275856
0.0356443
0.0434706
0.0514999
0.0598134
0.0682364
0.0763824
0.0837426
0.0899098
0.0946034
0.0978314
0.0996627
0.100307
0.100005
0.0989631
0.0973938
0.0955013
0.0935096
0.0917072
0.0903007
0.0893893
0.0888654
0.088472
0.0878892
0.0867805
0.0849421
0.0823097
0.0791022
0.0756766
0.0723447
0.0693633
0.0668747
0.0647551
0.0628349
0.0609193
0.0588541
0.05649
0.05374
0.0505492
0.046907
0.0428775
0.0386242
0.0345116
0.0308409
0.0280757
0.0264622
0.0260199
0.0264999
0.0274974
0.0284487
0.0288408
0.028378
0.0270492
0.0251261
0.0229817
0.0209972
0.0192966
0.0177653
0.0161053
0.0139608
0.0111496
0.0077792
0.00415714
0.000831163
-0.00173739
-0.00317164
-0.00342656
-0.00276112
-0.00163901
-0.000506887
0.000205414
0.000261381
-0.000343524
-0.00146283
-0.00287092
-0.0043257
-0.00564036
-0.00668523
-0.00733868
-0.00757257
-0.00737058
-0.00680218
-0.00608273
-0.00556005
-0.00572698
-0.0068722
-0.00906848
-0.0120613
-0.015151
-0.0175944
-0.018647
-0.018046
-0.0159519
-0.0128583
-0.00939025
-0.00586266
-0.00229925
0.00160589
0.00623556
0.0118594
0.0184051
0.0255425
0.0328702
0.0400215
0.046788
0.0531868
0.0592923
0.064969
0.0700274
0.0740226
0.0766358
0.0776771
0.0772467
0.0757625
0.073811
0.0719826
0.0705151
0.0692758
0.067652
0.0649165
0.0606298
0.054938
0.0488258
0.043801
0.0413852
0.042301
0.0460164
0.0506936
0.0536777
0.0525087
0.0458178
0.0337625
0.0179162
0.000662376
-0.0156559
-0.0293755
-0.0398061
-0.0472081
-0.0522697
-0.0558003
-0.0584102
-0.0603111
-0.0615077
-0.0618885
-0.0614002
-0.0601753
-0.0585593
-0.0571037
-0.0562762
-0.0563774
-0.057298
-0.0586012
-0.0596518
-0.0600389
-0.0596334
-0.0588936
-0.0589615
-0.0616405
-0.068936
-0.082587
-0.10377
-0.132316
-0.166181
-0.200847
-0.229247
-0.241922
-0.227702
-0.175328
-0.076061
0.0728758
0.264805
0.481475
0.693579
0.865517
0.963266
0.964023
0.863669
0.679463
0.446077
0.206378
-0.000460554
-0.148816
-0.231121
-0.256084
-0.242499
-0.211272
-0.178885
-0.154482
-0.140343
-0.134555
-0.1339
-0.13566
-0.138256
-0.141024
-0.143542
-0.145403
-0.146127
-0.145585
-0.143906
-0.141593
-0.1392
-0.137052
-0.135175
-0.133342
-0.131176
-0.128502
-0.125341
-0.121948
-0.118679
-0.115856
-0.113693
-0.112263
-0.111549
-0.111502
-0.11198
-0.112883
-0.113965
-0.114957
-0.115459
-0.115116
-0.113692
-0.111143
-0.107757
-0.103978
-0.100431
-0.0975904
-0.0957938
-0.0950495
-0.0950914
-0.0954897
-0.0958652
-0.0959119
-0.095533
-0.0948176
-0.0940136
-0.0934397
-0.0933425
-0.0939489
-0.095183
-0.0966953
-0.0980685
-0.0987127
-0.0983296
-0.0967327
-0.0941027
-0.0909004
-0.0876473
-0.0849566
-0.0833305
-0.0830107
-0.0840676
-0.0863926
-0.089493
-0.0928267
-0.0957958
-0.0979982
-0.0993192
-0.0998966
-0.100265
-0.101049
-0.102755
-0.105611
-0.109535
-0.113992
-0.11825
-0.121471
-0.122788
-0.121545
-0.117304
-0.109992
-0.0999791
-0.0878937
-0.07479
-0.0615865
-0.0490855
-0.0378192
-0.0279147
-0.0191977
-0.0114406
-0.00433083
0.00232648
0.00881137
0.0154078
0.0223075
0.0296903
0.0375914
0.0458824
0.0542516
0.062463
0.0702613
0.0774865
0.083983
0.089528
0.0937358
0.0962448
0.0967817
0.0953952
0.0925914
0.0893272
0.0865558
0.0850169
0.0848576
0.0855645
0.0862735
0.0861015
0.0845664
0.0819218
0.0789673
0.0765927
0.075431
0.0755385
0.076331
0.0769258
0.0766503
0.0752023
0.0728378
0.0700796
0.0674921
0.0654336
0.0639299
0.0628407
0.0619922
0.0613074
0.0606555
0.0598104
0.0583988
0.0559404
0.0521692
0.0472786
0.0417675
0.0364995
0.0323353
0.0298186
0.028897
0.029137
0.0298064
0.0301624
0.0296955
0.0282583
0.0260501
0.0234429
0.020923
0.0189845
0.0178962
0.0176664
0.0180686
0.0185516
0.0185883
0.0177464
0.0159429
0.0134705
0.0108015
0.00853081
0.00701828
0.00623448
0.00584968
0.00534053
0.00427589
0.00245551
8.28246e-6
-0.00266794
-0.00518405
-0.0071544
-0.0082993
-0.00843408
-0.00751724
-0.00553826
-0.00269015
0.000584153
0.00369546
0.00595968
0.0067887
0.00590631
0.00326967
-0.000639017
-0.00514857
-0.00958477
-0.0132448
-0.0155198
-0.0159591
-0.0142393
-0.010153
-0.00377579
0.0045827
0.0143003
0.0245831
0.0344586
0.0431552
0.0500594
0.0549875
0.0581647
0.0601742
0.061785
0.0636673
0.0663083
0.0697716
0.0735801
0.0768756
0.0786917
0.0784056
0.0758538
0.0715342
0.0665259
0.0621837
0.0596507
0.0594028
0.0610627
0.063318
0.0644094
0.0625115
0.0564242
0.0457875
0.0313089
0.0144757
-0.00268997
-0.0182959
-0.0308223
-0.0394304
-0.0440373
-0.0450746
-0.0435663
-0.0407068
-0.0376898
-0.0353863
-0.0342047
-0.0340487
-0.034512
-0.035099
-0.0354524
-0.0356238
-0.0359504
-0.0368527
-0.038679
-0.0413165
-0.0442146
-0.0463979
-0.046951
-0.0453044
-0.041648
-0.0369942
-0.0330083
-0.0315225
-0.0340738
-0.0415759
-0.0542158
-0.0717605
-0.0936058
-0.118956
-0.1462
-0.172299
-0.192187
-0.198635
-0.182613
-0.134424
-0.0457133
0.0878036
0.263276
0.468333
0.680558
0.869504
1.00233
1.05155
1.00329
0.862455
0.652872
0.411568
0.178943
-0.0115762
-0.141301
-0.208355
-0.224608
-0.209051
-0.180768
-0.153634
-0.134688
-0.125093
-0.122644
-0.124129
-0.126869
-0.129338
-0.130971
-0.131671
-0.131423
-0.13016
-0.127944
-0.124893
-0.121324
-0.117613
-0.114299
-0.111798
-0.110322
-0.109797
-0.109908
-0.11029
-0.110563
-0.110438
-0.109807
-0.108696
-0.107171
-0.105446
-0.103657
-0.101941
-0.100312
-0.0987204
-0.0971161
-0.0954897
-0.0939106
-0.0925212
-0.0915444
-0.0911097
-0.0912879
-0.0919114
-0.092662
-0.0931958
-0.0931671
-0.0923317
-0.0905981
-0.088084
-0.0851193
-0.0821727
-0.0796758
-0.078014
-0.0773486
-0.0776224
-0.0785507
-0.0797185
-0.0807537
-0.0813406
-0.0814261
-0.0811025
-0.0806551
-0.0803329
-0.0803259
-0.0806712
-0.0812057
-0.0818013
-0.0822706
-0.0825941
-0.0829488
-0.0836815
-0.0850734
-0.0874205
-0.0907171
-0.0948218
-0.0993636
-0.103968
-0.108305
-0.112172
-0.11542
-0.117872
-0.119325
-0.119397
-0.117718
-0.114065
-0.108378
-0.100919
-0.092139
-0.0827179
-0.0732257
-0.0642893
-0.056467
-0.0500192
-0.0449917
-0.0411081
-0.037793
-0.0342907
-0.0298113
-0.0237264
-0.015791
-0.00613218
0.00471948
0.016179
0.0275988
0.0386356
0.0491172
0.0590748
0.068624
0.0777559
0.0863659
0.0942293
0.101137
0.106922
0.111596
0.115366
0.118456
0.12113
0.123564
0.125748
0.127623
0.128987
0.12963
0.129535
0.128751
0.127494
0.126002
0.12443
0.122818
0.121018
0.118891
0.116331
0.11338
0.110283
0.107254
0.104485
0.102018
0.0998562
0.0977917
0.0957523
0.0936945
0.091726
0.0899351
0.0883668
0.0870538
0.0859063
0.0847806
0.0835386
0.0821302
0.0804766
0.0784929
0.0761856
0.0735779
0.07078
0.0679689
0.0653419
0.0630268
0.0610654
0.0594128
0.0578986
0.0564476
0.0549982
0.0535753
0.0522144
0.0509694
0.0498231
0.0487809
0.0476888
0.0465088
0.0451263
0.0433333
0.0410245
0.0381178
0.0347817
0.0313207
0.0281633
0.0258221
0.0245845
0.0244616
0.0252159
0.0264523
0.0277512
0.0287995
0.029413
0.0295406
0.0292027
0.0283865
0.0271795
0.025694
0.0241324
0.0227447
0.0216144
0.0206728
0.0198213
0.0186476
0.0170572
0.0151386
0.0131482
0.0115163
0.0105452
0.010304
0.0106944
0.0114031
0.012126
0.0127488
0.0133301
0.0140747
0.0153135
0.0174002
0.0206678
0.0253096
0.0312656
0.0383683
0.0460856
0.0538679
0.0611228
0.0675536
0.0732265
0.0784934
0.0837851
0.0895279
0.095635
0.101615
0.106638
0.109849
0.110638
0.108918
0.105057
0.0997996
0.0940764
0.0886372
0.0841861
0.081288
0.0803472
0.0815964
0.084772
0.0890245
0.0929528
0.09488
0.0934602
0.0880507
0.0790341
0.0676053
0.0553186
0.0435537
0.0330517
0.0238373
0.0153657
0.00702595
-0.00151792
-0.0101729
-0.0184324
-0.0256161
-0.0311584
-0.0348539
-0.0369112
-0.0378849
-0.0384966
-0.0393977
-0.0409144
-0.0430612
-0.0455398
-0.0479342
-0.0499137
-0.0514458
-0.0526089
-0.0534652
-0.053866
-0.0535877
-0.052327
-0.0501012
-0.0474424
-0.0456978
-0.046776
-0.0529167
-0.0659609
-0.0868609
-0.115077
-0.14812
-0.181093
-0.206851
-0.216621
-0.200883
-0.150548
-0.05819
0.0800232
0.262123
0.478089
0.708311
0.92411
1.09144
1.17787
1.16165
1.03921
0.828717
0.56659
0.298204
0.0656934
-0.102895
-0.198981
-0.232048
-0.223066
-0.195536
-0.167886
-0.149797
-0.142981
-0.144178
-0.148935
-0.153791
-0.157171
-0.15909
-0.160223
-0.161002
-0.161458
-0.16133
-0.160366
-0.15845
-0.155755
-0.152691
-0.149776
-0.147476
-0.14608
-0.145523
-0.1456
-0.145857
-0.145839
-0.145303
-0.144229
-0.142672
-0.14082
-0.138769
-0.136525
-0.134133
-0.131527
-0.128718
-0.125878
-0.123245
-0.121035
-0.119464
-0.118568
-0.118179
-0.117898
-0.11728
-0.115879
-0.11344
-0.110005
-0.105993
-0.102041
-0.0989493
-0.0973039
-0.097417
-0.0991288
-0.101908
-0.105046
-0.107667
-0.109145
-0.109211
-0.107937
-0.105768
-0.103261
-0.101164
-0.0999254
-0.0997354
-0.100557
-0.102019
-0.103717
-0.105301
-0.106554
-0.107484
-0.108094
-0.108442
-0.108562
-0.108475
-0.108303
-0.108278
-0.108728
-0.109908
-0.111969
-0.114787
-0.117895
-0.120775
-0.122688
-0.122958
-0.121018
-0.116495
-0.10931
-0.0995652
-0.0876916
-0.074441
-0.0606784
-0.0473822
-0.0353874
-0.0253376
-0.0175398
-0.0118965
-0.00798834
-0.00513026
-0.00254297
0.000491605
0.00456984
0.0100109
0.0168679
0.0249746
0.0339501
0.0433331
0.0526255
0.0614601
0.0695847
0.0769039
0.0833881
0.0891691
0.0942979
0.0989679
0.103236
0.107138
0.11062
0.113517
0.115634
0.116786
0.116926
0.116192
0.114891
0.113321
0.111878
0.110754
0.109868
0.1091
0.108245
0.107179
0.105963
0.1047
0.103558
0.102562
0.101577
0.10027
0.0982967
0.0954134
0.0916628
0.0873506
0.0829332
0.0789219
0.0756655
0.0732787
0.0716138
0.0704319
0.0693517
0.0681208
0.06657
0.0646868
0.0625004
0.060068
0.0575055
0.0548887
0.0523152
0.0498731
0.0475983
0.0454974
0.0434981
0.0414899
0.0393838
0.0371224
0.0346736
0.0320281
0.0292201
0.0262174
0.0230419
0.0197217
0.0163703
0.0131012
0.0101369
0.00757089
0.00551284
0.00394501
0.00278681
0.00201094
0.00150167
0.00121055
0.0010899
0.000986272
0.000751309
0.000117309
-0.00113642
-0.00321799
-0.00610728
-0.00960283
-0.0133612
-0.0169439
-0.0199431
-0.0221179
-0.0234005
-0.0238325
-0.0236613
-0.0231737
-0.0226244
-0.0221174
-0.021784
-0.0215327
-0.0212352
-0.0208006
-0.0201464
-0.0193069
-0.0183873
-0.0174626
-0.0166996
-0.0162454
-0.0162601
-0.016828
-0.0178921
-0.0190914
-0.0197126
-0.0188105
-0.0154244
-0.00899871
0.000385062
0.011947
0.0243758
0.0360508
0.0457127
0.0526655
0.0569257
0.0592145
0.0605993
0.0621723
0.0646802
0.0684273
0.0731929
0.078267
0.0829235
0.0862345
0.0876032
0.0867944
0.0839017
0.0793877
0.0738189
0.067915
0.0623673
0.057801
0.0548421
0.0540568
0.0557687
0.0596678
0.0647365
0.0693211
0.0714363
0.0693188
0.0620373
0.0497237
0.0336974
0.0159621
-0.00133931
-0.0163395
-0.0279976
-0.0359009
-0.0404003
-0.0421705
-0.0421987
-0.0414633
-0.0408738
-0.0409952
-0.042017
-0.0437526
-0.0458336
-0.0477499
-0.0492032
-0.0501623
-0.0509546
-0.0518219
-0.0530166
-0.0545812
-0.0562708
-0.0576153
-0.0582076
-0.0578053
-0.0564828
-0.0546523
-0.0530966
-0.0530882
-0.0561026
-0.0637795
-0.0775378
-0.0981153
-0.125127
-0.156747
-0.189168
-0.21671
-0.231986
-0.226664
-0.192041
-0.120243
-0.00558734
0.153202
0.350602
0.57195
0.793113
0.982593
1.10713
1.13977
1.0685
0.901425
0.666332
0.404127
0.157937
-0.0381431
-0.166842
-0.229182
-0.240362
-0.222022
-0.19439
-0.170943
-0.157315
-0.15299
-0.154612
-0.158484
-0.162151
-0.164502
-0.165423
-0.165128
-0.163826
-0.161705
-0.159017
-0.156119
-0.153406
-0.15106
-0.149133
-0.147579
-0.146245
-0.144972
-0.143768
-0.142765
-0.142052
-0.141704
-0.141691
-0.141793
-0.141647
-0.141001
-0.13971
-0.137841
-0.135691
-0.133598
-0.131838
-0.130469
-0.129346
-0.128223
-0.126863
-0.125179
-0.1232
-0.121119
-0.119079
-0.117219
-0.115647
-0.114397
-0.113503
-0.113022
-0.112994
-0.113325
-0.113891
-0.11447
-0.114823
-0.114735
-0.114154
-0.113138
-0.111796
-0.110429
-0.109297
-0.108596
-0.10842
-0.108693
-0.109151
-0.109284
-0.108743
-0.107175
-0.104683
-0.101617
-0.0986524
-0.0964882
-0.0955693
-0.0959795
-0.0974327
-0.0994791
-0.10172
-0.104045
-0.10649
-0.109175
-0.111984
-0.114668
-0.116582
-0.11693
-0.115084
-0.11071
-0.10368
-0.0943815
-0.0833069
-0.0710656
-0.0583509
-0.045969
-0.034597
-0.0249315
-0.0173679
-0.0120013
-0.00852275
-0.00626165
-0.00435398
-0.00194029
0.00167395
0.0068179
0.0134232
0.0212404
0.029824
0.0387306
0.0475714
0.0562128
0.0645858
0.0726568
0.0803669
0.0875657
0.0938547
0.0990234
0.102932
0.105656
0.107502
0.108787
0.109752
0.110382
0.110563
0.11017
0.109239
0.107943
0.106649
0.105679
0.105171
0.104973
0.104895
0.104579
0.103842
0.102597
0.100996
0.0992929
0.0977426
0.0965225
0.0956491
0.0949847
0.0942772
0.0932866
0.0918497
0.089875
0.0873479
0.0843506
0.0808262
0.0768595
0.0725755
0.0681707
0.0640086
0.0605
0.0578316
0.0560258
0.054741
0.0535056
0.0518142
0.0494227
0.046282
0.042701
0.0390568
0.0356787
0.0327345
0.0301722
0.0277608
0.0252698
0.0225993
0.0197736
0.0169317
0.0143529
0.0123016
0.0109534
0.0104232
0.0105805
0.0110807
0.0114933
0.0112811
0.0100148
0.00763681
0.00433842
0.000736812
-0.00236817
-0.00429694
-0.00472533
-0.00380219
-0.00222656
-0.000967478
-0.000779728
-0.00203408
-0.0045389
-0.00759614
-0.0104719
-0.0124656
-0.0133581
-0.0132511
-0.0125365
-0.0115731
-0.0105618
-0.00961323
-0.00870342
-0.00787466
-0.00719914
-0.00681966
-0.00674274
-0.00695616
-0.00719584
-0.00728692
-0.00699055
-0.00621982
-0.00516404
-0.00417299
-0.00365247
-0.00377389
-0.00442256
-0.00507569
-0.00490655
-0.00306046
0.00118738
0.00799383
0.0170233
0.0273849
0.0380243
0.0479656
0.0565382
0.063565
0.0692377
0.074001
0.0781878
0.0820359
0.0855048
0.0884597
0.0906656
0.0920958
0.0926487
0.0922681
0.0908232
0.0880646
0.0838671
0.0784598
0.0725944
0.0675603
0.0648093
0.0652607
0.0689128
0.0745482
0.0801157
0.0833601
0.0826475
0.0774101
0.0681543
0.0561803
0.0428753
0.0292499
0.015852
0.00286167
-0.0095273
-0.0208799
-0.0305766
-0.0380562
-0.0430469
-0.0457565
-0.0468062
-0.0470703
-0.0473461
-0.0481685
-0.0497763
-0.0520155
-0.0545256
-0.0567368
-0.0582581
-0.058789
-0.0582714
-0.0568096
-0.0547705
-0.0526059
-0.0508006
-0.0499168
-0.0507475
-0.0543493
-0.0620068
-0.0750299
-0.0942652
-0.119868
-0.15046
-0.182669
-0.210925
-0.227537
-0.223018
-0.1868
-0.109159
0.0157928
0.186653
0.391506
0.606419
0.798138
0.930627
0.97458
0.916645
0.764856
0.547672
0.306425
0.0836252
-0.0885963
-0.195393
-0.240062
-0.238891
-0.2131
-0.181484
-0.155654
-0.139761
-0.132614
-0.130952
-0.131788
-0.133331
-0.135057
-0.136906
-0.138622
-0.139613
-0.139293
-0.137207
-0.133516
-0.128837
-0.124181
-0.120648
-0.118951
-0.119176
-0.120816
-0.122856
-0.124176
-0.124174
-0.122833
-0.120725
-0.118756
-0.117657
-0.117669
-0.118414
-0.119228
-0.119514
-0.118987
-0.117793
-0.116286
-0.114713
-0.112956
-0.110572
-0.106966
-0.101745
-0.0949161
-0.0870563
-0.0791277
-0.0722166
-0.0672061
-0.0646495
-0.0646135
-0.0669017
-0.0709875
-0.0762886
-0.082088
-0.087656
-0.0922577
-0.0954122
-0.0967981
-0.0964884
-0.0949175
-0.0926127
-0.0902001
-0.0882098
-0.0869371
-0.086535
-0.0868953
-0.0877111
-0.0886004
-0.0890562
-0.0887327
-0.0874126
-0.0853296
-0.0830647
-0.0814807
-0.0813657
-0.0831465
-0.0866621
-0.0914069
-0.0964884
-0.101152
-0.104945
-0.107882
-0.109944
-0.111159
-0.111158
-0.109302
-0.105005
-0.0980321
-0.088749
-0.0780374
-0.06708
-0.0569547
-0.0484064
-0.0416407
-0.0364297
-0.0322141
-0.0284047
-0.0244439
-0.0199448
-0.0147474
-0.00888398
-0.00255526
0.00405146
0.0107872
0.0176047
0.0245846
0.0317951
0.0391644
0.0463934
0.0529873
0.0584617
0.0626021
0.0655659
0.0679317
0.0705647
0.0741138
0.0787811
0.0840794
0.0890448
0.0925622
0.093906
0.0930815
0.0908718
0.0885007
0.0871229
0.0873813
0.0891603
0.0917176
0.0938667
0.0945114
0.0930523
0.0893532
0.0837811
0.0772161
0.0704795
0.0644215
0.0596815
0.0565774
0.0551497
0.0552609
0.0564388
0.0580001
0.0593057
0.0597645
0.0590507
0.0570767
0.0541392
0.0506925
0.0472807
0.0443482
0.0421044
0.0406147
0.0396346
0.0388275
0.0378083
0.0361331
0.0333651
0.0293647
0.0243536
0.018756
0.0134114
0.0091582
0.00669491
0.00616907
0.0073196
0.00926507
0.0109992
0.0116812
0.0109295
0.00886796
0.00597685
0.00298687
0.000320774
-0.00182906
-0.00363044
-0.00541762
-0.00735465
-0.00946778
-0.0113972
-0.0127601
-0.0132223
-0.0126996
-0.0114263
-0.00988831
-0.00870376
-0.00836152
-0.00907734
-0.0106898
-0.0129111
-0.0151388
-0.0170331
-0.0184272
-0.0195441
-0.0209208
-0.0232143
-0.0266532
-0.0308029
-0.0346317
-0.036449
-0.0348173
-0.0289526
-0.0192108
-0.00697493
0.00572929
0.0170665
0.0260099
0.0325367
0.0374083
0.0417521
0.0463594
0.0514899
0.0568647
0.0618926
0.0660501
0.0691422
0.0711681
0.0723355
0.0728337
0.0726459
0.0717883
0.0702401
0.0680424
0.0653472
0.0624107
0.0593035
0.056248
0.0534774
0.0514077
0.0503826
0.050503
0.0513326
0.0518658
0.0506004
0.0460828
0.0374342
0.0246194
0.00859076
-0.00888509
-0.025797
-0.0403435
-0.0512919
-0.0581293
-0.0610198
-0.0606935
-0.0581591
-0.0546298
-0.0511059
-0.0483916
-0.0470115
-0.0472152
-0.0488829
-0.051599
-0.0545809
-0.0567649
-0.0571687
-0.0551616
-0.0508921
-0.0454344
-0.0406316
-0.0387663
-0.0420696
-0.0520873
-0.0695487
-0.0941118
-0.124197
-0.156349
-0.185
-0.202177
-0.197729
-0.160325
-0.0797455
0.0498281
0.226082
0.435832
0.654127
0.847203
0.97911
1.02118
0.960712
0.806106
0.585846
0.341064
0.114255
-0.062166
-0.173012
-0.221135
-0.222618
-0.19875
-0.168249
-0.142861
-0.126557
-0.118121
-0.114271
-0.112206
-0.110674
-0.109803
-0.110363
-0.112811
-0.11692
-0.121988
-0.126995
-0.13097
-0.13313
-0.13329
-0.131722
-0.129188
-0.126567
-0.124636
-0.123816
-0.123998
-0.124655
-0.12513
-0.124871
-0.123625
-0.121499
-0.118882
-0.116112
-0.113474
-0.111039
-0.108716
-0.106408
-0.104086
-0.101733
-0.0994723
-0.0973514
-0.0954259
-0.0937559
-0.0922711
-0.0911015
-0.0902961
-0.0898584
-0.0896814
-0.0896868
-0.0897449
-0.0898008
-0.0899127
-0.0901718
-0.0904516
-0.0906113
-0.0902686
-0.0891605
-0.0871535
-0.084444
-0.0814289
-0.0786768
-0.0766897
-0.0756109
-0.0753848
-0.0757869
-0.0765001
-0.0774307
-0.0786053
-0.080222
-0.0825971
-0.0858269
-0.0897891
-0.0941211
-0.0982731
-0.101742
-0.104264
-0.105952
-0.10727
-0.108816
-0.111266
-0.114844
-0.119455
-0.124479
-0.128989
-0.131951
-0.132451
-0.129712
-0.123297
-0.113181
-0.0997456
-0.0837641
-0.0663455
-0.0486627
-0.0317254
-0.0160925
-0.00192573
0.0110635
0.0233507
0.0353355
0.0471786
0.0588047
0.0699521
0.0802663
0.0894912
0.0974882
0.104247
0.109755
0.114104
0.117318
0.119502
0.12077
0.12136
0.121458
0.121287
0.120923
0.120457
0.119841
0.119007
0.118009
0.116905
0.115782
0.114787
0.113998
0.113375
0.112898
0.112433
0.111804
0.110756
0.109115
0.106672
0.103432
0.0994778
0.0950799
0.0904774
0.0859612
0.0817951
0.0782102
0.0753071
0.0731169
0.0715217
0.070305
0.0690835
0.0675928
0.0657571
0.0635011
0.0610827
0.0587029
0.0565203
0.0544959
0.0524625
0.050166
0.0474834
0.044448
0.0413139
0.0383961
0.0361148
0.0345991
0.0339265
0.0339143
0.0343576
0.0349902
0.0355819
0.0359857
0.0360892
0.0358165
0.0351187
0.0340249
0.0326786
0.0311751
0.0295386
0.0279498
0.0262566
0.0244865
0.022637
0.020732
0.018879
0.0171238
0.015514
0.0141413
0.0130211
0.0121666
0.0114837
0.0109091
0.0102897
0.00946735
0.00831871
0.00684673
0.00521031
0.00361673
0.00233331
0.00145615
0.00100475
0.000802758
0.000590578
0.000251011
-0.000169957
-0.0004234
7.91239e-5
0.00198949
0.00583846
0.0118228
0.0196544
0.0286146
0.0377309
0.0458654
0.0522951
0.0567829
0.0596701
0.061734
0.0638674
0.066769
0.0707296
0.0756377
0.0810266
0.0863267
0.0909518
0.0944979
0.096547
0.0969161
0.0954488
0.0922211
0.0875041
0.081802
0.0758044
0.0702362
0.0657257
0.0629447
0.0623092
0.0638937
0.0671975
0.0712058
0.0743344
0.0748393
0.0713621
0.0632507
0.0508394
0.0354306
0.0188462
0.00300569
-0.0105828
-0.0210972
-0.0284493
-0.0331548
-0.0359764
-0.0378035
-0.0392336
-0.0406283
-0.0419767
-0.04309
-0.0437607
-0.0439925
-0.0438505
-0.0436688
-0.0436229
-0.0436688
-0.0436129
-0.0432037
-0.042314
-0.0412513
-0.0409463
-0.042952
-0.0491752
-0.0614375
-0.0808641
-0.10747
-0.139418
-0.172761
-0.201163
-0.216315
-0.208854
-0.169127
-0.0885135
0.0386144
0.212359
0.424571
0.656923
0.880989
1.06162
1.16424
1.16413
1.05501
0.852876
0.593346
0.322438
0.0840369
-0.0915035
-0.193453
-0.230012
-0.221791
-0.192797
-0.162457
-0.141638
-0.132754
-0.132869
-0.1375
-0.142973
-0.147493
-0.150966
-0.154058
-0.157178
-0.160252
-0.162813
-0.164338
-0.164577
-0.163503
-0.161459
-0.15904
-0.156741
-0.15491
-0.15364
-0.152825
-0.152179
-0.151467
-0.15051
-0.149207
-0.147582
-0.145666
-0.143557
-0.141324
-0.139086
-0.136975
-0.135
-0.133221
-0.131602
-0.130042
-0.128506
-0.126932
-0.125381
-0.123955
-0.122693
-0.121656
-0.120782
-0.11988
-0.118819
-0.117496
-0.115948
-0.114355
-0.112997
-0.112169
-0.11197
-0.112215
-0.112633
-0.112892
-0.112812
-0.112462
-0.112173
-0.112215
-0.112791
-0.113804
-0.114908
-0.115647
-0.115698
-0.114923
-0.113385
-0.111402
-0.109271
-0.107281
-0.105622
-0.104433
-0.10377
-0.103781
-0.104477
-0.105799
-0.107587
-0.109463
-0.11104
-0.112089
-0.112387
-0.111878
-0.110553
-0.108274
-0.104644
-0.0992127
-0.0914557
-0.0811551
-0.0686481
-0.054849
-0.0409911
-0.0284186
-0.0180976
-0.0102371
-0.00437275
0.000533218
0.00575825
0.0123604
0.0207741
0.0309756
0.0423381
0.0540421
0.0653064
0.0754616
0.0841325
0.0911967
0.0967665
0.101104
0.104604
0.107718
0.110696
0.113713
0.116651
0.119166
0.12094
0.121605
0.120992
0.119178
0.116391
0.113073
0.109702
0.106771
0.104604
0.103351
0.103007
0.103353
0.104104
0.104938
0.10547
0.1055
0.104832
0.103371
0.101105
0.0981591
0.0948038
0.0913489
0.0881995
0.0856359
0.0836576
0.0820809
0.0804998
0.0785582
0.0759796
0.0727182
0.0690088
0.0651142
0.0613621
0.0578838
0.0547506
0.0518691
0.049197
0.0465962
0.0440572
0.0415037
0.0389355
0.0363634
0.0338946
0.0316002
0.029574
0.0277899
0.026094
0.0243753
0.0225126
0.020463
0.0183644
0.01636
0.0146949
0.0134761
0.0127472
0.0123988
0.0122416
0.0120896
0.0117023
0.0110477
0.0101455
0.00912642
0.00813383
0.00735612
0.00676596
0.00617549
0.00539454
0.00418196
0.00242959
0.000221058
-0.0021736
-0.00440184
-0.00606704
-0.00692988
-0.00692947
-0.00618377
-0.00498977
-0.00361335
-0.0024276
-0.0016583
-0.00142406
-0.00174127
-0.00245568
-0.00337152
-0.00423951
-0.00492852
-0.0053532
-0.00538784
-0.00483703
-0.0033334
-0.000395529
0.00445714
0.011409
0.020201
0.0301166
0.040161
0.0493224
0.0569583
0.0629423
0.0675992
0.07148
0.0752497
0.0792016
0.0832751
0.0871287
0.0902226
0.0919138
0.0918869
0.0898923
0.0860483
0.080673
0.0743155
0.0677914
0.062116
0.0583618
0.0574526
0.0597839
0.0650099
0.0718529
0.0783663
0.0824287
0.0823195
0.0772809
0.0676411
0.0546621
0.0400429
0.0255116
0.0121542
0.00059392
-0.00906326
-0.0170038
-0.0234229
-0.0284853
-0.0324586
-0.035564
-0.0381251
-0.0403239
-0.0422249
-0.0438214
-0.0450186
-0.0458118
-0.0461918
-0.0464034
-0.0466362
-0.0470235
-0.0475666
-0.0481134
-0.0483863
-0.0481355
-0.0473049
-0.0459879
-0.0447608
-0.0447426
-0.0476808
-0.055587
-0.0702827
-0.0927081
-0.122423
-0.157
-0.191687
-0.219571
-0.232225
-0.220382
-0.174675
-0.0869013
0.0476309
0.227259
0.440841
0.666206
0.871364
1.01988
1.07995
1.03414
0.886473
0.663001
0.405723
0.160422
-0.0356951
-0.16325
-0.222692
-0.230114
-0.208554
-0.179409
-0.156554
-0.145005
-0.143303
-0.147156
-0.152448
-0.156613
-0.158835
-0.159455
-0.159068
-0.158102
-0.156737
-0.155044
-0.153126
-0.15104
-0.148832
-0.146581
-0.14443
-0.142453
-0.140822
-0.1395
-0.138329
-0.13693
-0.134903
-0.131955
-0.128118
-0.123749
-0.119531
-0.11613
-0.114126
-0.113715
-0.114554
-0.115961
-0.117105
-0.117281
-0.116132
-0.113717
-0.110621
-0.107487
-0.105072
-0.103828
-0.103904
-0.105049
-0.106804
-0.108675
-0.110174
-0.111006
-0.111115
-0.110487
-0.109391
-0.108053
-0.106721
-0.105569
-0.104688
-0.104082
-0.103584
-0.103039
-0.102389
-0.101696
-0.101198
-0.101137
-0.101731
-0.103008
-0.104627
-0.106169
-0.10712
-0.107216
-0.106503
-0.105309
-0.104138
-0.103441
-0.103613
-0.104716
-0.106561
-0.108865
-0.111172
-0.113113
-0.114354
-0.114643
-0.113661
-0.111076
-0.106498
-0.0994312
-0.0894698
-0.0764187
-0.0605083
-0.0424552
-0.0233913
-0.00456706
0.0128437
0.028006
0.0405637
0.0506814
0.0587735
0.0654022
0.0710121
0.0759518
0.0804054
0.0844619
0.0881996
0.0916402
0.0947148
0.0973821
0.0994855
0.100914
0.10165
0.101784
0.101535
0.101115
0.100742
0.100493
0.100332
0.100166
0.0997684
0.0989775
0.0976819
0.0959071
0.0938336
0.0916622
0.0896089
0.08771
0.085845
0.0837178
0.0812333
0.0783376
0.0751603
0.0719732
0.0691001
0.0665559
0.0642844
0.0620994
0.0598274
0.0575437
0.0553651
0.0536025
0.0524764
0.0519642
0.0518464
0.0516739
0.0510607
0.0496038
0.0471974
0.0439341
0.0400958
0.0360581
0.0321453
0.0285848
0.025546
0.0230608
0.0209488
0.0190036
0.0169695
0.014663
0.0119641
0.00903084
0.00606133
0.00336569
0.0012034
-0.000347939
-0.00123011
-0.00157806
-0.00161893
-0.00154532
-0.00152556
-0.0017175
-0.0021313
-0.00267788
-0.00327656
-0.00378013
-0.00412172
-0.00440928
-0.00470699
-0.00517414
-0.00585776
-0.00665779
-0.00735979
-0.00780729
-0.00786613
-0.00759106
-0.00721733
-0.0070735
-0.00740585
-0.00825613
-0.00946702
-0.0107453
-0.0117414
-0.0122418
-0.0122103
-0.0117599
-0.0110743
-0.010151
-0.00888253
-0.00690021
-0.00376085
0.000820192
0.00692813
0.0143381
0.0225108
0.0308979
0.0390181
0.0466013
0.0535898
0.0602086
0.0666575
0.0729986
0.0791201
0.0846246
0.0891634
0.0923234
0.0939406
0.0940751
0.0929223
0.0907039
0.0876779
0.0840877
0.0803059
0.0769016
0.0747221
0.0745138
0.0765685
0.0804028
0.0845472
0.0870189
0.0858137
0.0797799
0.0688488
0.0542618
0.03818
0.0227714
0.00972056
-0.000306693
-0.00749504
-0.0125768
-0.0164929
-0.0198689
-0.0229408
-0.0257042
-0.0280409
-0.0298376
-0.0313086
-0.0326136
-0.0339351
-0.0353124
-0.0367523
-0.0381249
-0.0395004
-0.0410256
-0.0427498
-0.0446112
-0.0462542
-0.0472433
-0.0472366
-0.0465499
-0.0466545
-0.0497065
-0.0582765
-0.0743965
-0.0987631
-0.130055
-0.164538
-0.196221
-0.217423
-0.219724
-0.195185
-0.137474
-0.0427868
0.0888982
0.253524
0.44276
0.644152
0.841553
1.01592
1.14656
1.21374
1.20243
1.10689
0.933998
0.703956
0.447378
0.199196
-0.00973599
-0.159512
-0.244924
-0.274693
-0.266439
-0.240059
-0.211806
-0.191196
-0.180819
-0.178473
-0.180158
-0.182363
-0.183193
-0.182378
-0.180682
-0.17891
-0.177699
-0.177158
-0.176978
-0.176752
-0.176063
-0.174654
-0.172693
-0.170415
-0.168278
-0.166787
-0.166238
-0.166576
-0.167519
-0.168492
-0.168971
-0.16867
-0.167732
-0.166506
-0.165479
-0.16486
-0.1645
-0.163963
-0.162681
-0.160339
-0.156932
-0.152872
-0.148677
-0.144849
-0.141688
-0.139277
-0.137516
-0.136237
-0.135172
-0.134175
-0.133007
-0.131515
-0.129602
-0.127335
-0.124933
-0.122787
-0.121278
-0.120641
-0.120883
-0.121819
-0.123043
-0.124228
-0.125114
-0.125567
-0.125713
-0.125559
-0.125147
-0.12447
-0.123481
-0.122327
-0.121331
-0.120884
-0.121338
-0.122802
-0.125096
-0.127885
-0.130861
-0.133876
-0.136988
-0.140436
-0.144228
-0.147994
-0.150962
-0.152114
-0.150509
-0.145586
-0.137348
-0.12629
-0.113187
-0.0988638
-0.084046
-0.0694286
-0.0554321
-0.042335
-0.0302747
-0.0190005
-0.00808077
0.00297375
0.0145492
0.0265418
0.0383152
0.0488596
0.0571248
0.0624924
0.0650365
0.0655858
0.0654814
0.0660812
0.0683008
0.0722004
0.0771154
0.0817608
0.0847761
0.0853828
0.0835078
0.0797305
0.0752527
0.0713621
0.0689295
0.0683559
0.0694567
0.0715335
0.0737483
0.0754142
0.0760511
0.0756064
0.0743369
0.0725773
0.0707169
0.0688758
0.0669654
0.0647819
0.0620709
0.0587039
0.0547028
0.0503211
0.0459023
0.041873
0.0386053
0.0362415
0.0347249
0.0338662
0.0331993
0.0322539
0.0306371
0.0281443
0.0248469
0.0210965
0.0173064
0.0138913
0.0111035
0.00883855
0.00677196
0.0045343
0.00182084
-0.00132627
-0.00448047
-0.00703726
-0.0083881
-0.00827458
-0.00688832
-0.00481148
-0.00282851
-0.00164273
-0.00170123
-0.00302096
-0.005297
-0.00806132
-0.0107856
-0.0131301
-0.0149599
-0.0163057
-0.0173884
-0.0183966
-0.0193604
-0.0201659
-0.020514
-0.0199546
-0.0182953
-0.0156219
-0.0124979
-0.00974084
-0.00825703
-0.00867999
-0.0111455
-0.0151775
-0.0198301
-0.0240133
-0.0268554
-0.0280797
-0.0278801
-0.0268193
-0.0254007
-0.0238455
-0.0218476
-0.0187341
-0.0137502
-0.00652392
0.0027821
0.0132816
0.0237599
0.0330748
0.0406541
0.0464504
0.0510505
0.055221
0.059545
0.0641749
0.0687292
0.0725993
0.0751815
0.0760328
0.0751899
0.0730303
0.0699668
0.0665686
0.0630739
0.0594071
0.0552876
0.0504121
0.0447045
0.0385827
0.0330147
0.0292904
0.028459
0.0307731
0.0353792
0.0403943
0.0433271
0.0419934
0.035168
0.0230489
0.00719358
-0.0100516
-0.0262648
-0.0395933
-0.0492103
-0.0551451
-0.0582035
-0.0594108
-0.0596131
-0.0594812
-0.0592183
-0.0587773
-0.0581039
-0.057181
-0.0561349
-0.0551854
-0.0544874
-0.0541552
-0.0540806
-0.0539993
-0.0536934
-0.053104
-0.0523183
-0.0516182
-0.0514624
-0.0526372
-0.0563213
-0.0640883
-0.0775798
-0.0981584
-0.125764
-0.158007
-0.189513
-0.212282
-0.216352
-0.191397
-0.128398
-0.0216554
0.129042
0.316311
0.523968
0.727155
0.895374
0.998297
1.0133
0.932645
0.767272
0.545264
0.304944
0.0848289
-0.0861938
-0.194826
-0.2439
-0.248031
-0.226822
-0.197923
-0.173026
-0.156982
-0.149472
-0.147497
-0.147933
-0.148489
-0.148267
-0.147418
-0.146475
-0.14591
-0.146023
-0.146586
-0.147085
-0.146806
-0.145044
-0.141474
-0.136267
-0.130023
-0.123746
-0.118594
-0.115386
-0.114481
-0.115604
-0.117952
-0.120441
-0.122264
-0.122973
-0.122656
-0.121816
-0.121029
-0.12052
-0.120262
-0.120001
-0.119357
-0.118234
-0.116745
-0.115153
-0.11376
-0.11268
-0.111872
-0.111234
-0.110575
-0.109827
-0.109034
-0.108106
-0.106981
-0.105615
-0.103954
-0.101999
-0.100015
-0.0982782
-0.096952
-0.0960852
-0.095631
-0.0953523
-0.0950738
-0.0947098
-0.0944339
-0.0944182
-0.0949261
-0.0959672
-0.0973955
-0.0989376
-0.100263
-0.101152
-0.101477
-0.101254
-0.1007
-0.100002
-0.0993384
-0.0990129
-0.0991629
-0.100038
-0.101876
-0.104917
-0.10914
-0.114279
-0.119739
-0.124641
-0.128035
-0.12906
-0.127252
-0.122572
-0.115439
-0.106572
-0.0967654
-0.0869493
-0.0778594
-0.0700755
-0.0638623
-0.0591715
-0.0556469
-0.0525331
-0.0490306
-0.0443575
-0.0380065
-0.0298689
-0.0202298
-0.00971461
0.00100966
0.0113669
0.0210662
0.0300799
0.0385777
0.0467626
0.054826
0.0626733
0.0702278
0.0771814
0.0833952
0.0887159
0.0931983
0.0970737
0.100564
0.103921
0.107194
0.110207
0.112737
0.11436
0.114888
0.114324
0.112911
0.111123
0.109291
0.107686
0.10623
0.104771
0.103048
0.100921
0.0984394
0.0957878
0.0931769
0.0909299
0.0891414
0.0878816
0.0870392
0.0864714
0.0859096
0.0850837
0.0837883
0.0819153
0.0795223
0.0768418
0.0741496
0.071695
0.0695301
0.0675456
0.0654351
0.0629124
0.0598821
0.0564006
0.0528373
0.0496356
0.0471805
0.0456101
0.044821
0.0443968
0.0438856
0.0427677
0.0408632
0.0382214
0.0351708
0.0321823
0.029688
0.0279409
0.0269487
0.0264431
0.0260531
0.0254572
0.024447
0.0229632
0.0211456
0.019212
0.0174467
0.0160511
0.015097
0.0145674
0.01426
0.0138702
0.0132083
0.0121422
0.0107434
0.00925698
0.00791145
0.00687261
0.00607935
0.00532899
0.00433124
0.00284243
0.000857081
-0.00151016
-0.00399022
-0.00628065
-0.0082257
-0.009788
-0.0110885
-0.0122488
-0.0133422
-0.0143723
-0.0152158
-0.0156447
-0.015514
-0.0146857
-0.0131647
-0.011102
-0.00887775
-0.00684734
-0.00531679
-0.00432406
-0.00355487
-0.00230699
0.000241346
0.00478791
0.0115509
0.0202067
0.0298458
0.0394234
0.0479038
0.0547298
0.0598414
0.063692
0.0670024
0.0704323
0.0743463
0.0785937
0.0826559
0.0857996
0.0874245
0.0871693
0.0850561
0.0814187
0.0767913
0.0718082
0.0670959
0.0632829
0.0610327
0.0609072
0.0629974
0.0667352
0.070886
0.0736893
0.0733952
0.0687368
0.0594758
0.0462583
0.0305717
0.0142352
-0.00116126
-0.0144423
-0.0250257
-0.0327398
-0.0375907
-0.0399042
-0.0401423
-0.0389162
-0.0370814
-0.0355194
-0.0349569
-0.0358409
-0.0381754
-0.0415617
-0.0453072
-0.0486907
-0.051033
-0.0519741
-0.0514649
-0.049591
-0.0467534
-0.0432711
-0.039654
-0.0362176
-0.0331965
-0.0307595
-0.029
-0.0280869
-0.0283627
-0.0304549
-0.0354631
-0.0446758
-0.0593079
-0.0801915
-0.107173
-0.13875
-0.171659
-0.200708
-0.219067
-0.218964
-0.192337
-0.131707
-0.0313343
0.111201
0.292805
0.502576
0.720716
0.918928
1.06479
1.12867
1.09249
0.956567
0.741747
0.485238
0.230706
0.0166781
-0.133134
-0.213746
-0.2368
-0.223362
-0.195471
-0.169416
-0.153166
-0.147314
-0.14842
-0.152079
-0.155152
-0.156437
-0.156113
-0.155009
-0.153771
-0.15268
-0.151781
-0.150884
-0.149878
-0.148709
-0.147417
-0.146078
-0.144639
-0.143057
-0.141118
-0.138734
-0.135818
-0.13257
-0.129335
-0.126503
-0.124344
-0.123043
-0.122393
-0.122153
-0.121985
-0.12165
-0.121058
-0.120159
-0.119027
-0.117739
-0.116338
-0.114902
-0.113449
-0.112075
-0.110807
-0.109564
-0.108303
-0.106902
-0.105336
-0.103714
-0.102137
-0.10068
-0.0993891
-0.0982447
-0.0970761
-0.0958666
-0.0946854
-0.0937482
-0.0933136
-0.0935401
-0.0943619
-0.0955279
-0.0965832
-0.0971214
-0.0969305
-0.096029
-0.0948484
-0.0938617
-0.0935322
-0.0940514
-0.0953272
-0.0970876
-0.0989931
-0.100769
-0.102363
-0.103851
-0.105493
-0.107475
-0.109985
-0.112975
-0.11627
-0.119487
-0.122213
-0.123772
-0.123592
-0.121106
-0.115947
-0.10801
-0.0975937
-0.0853338
-0.0720687
-0.0587884
-0.0463585
-0.0353878
-0.0262191
-0.0187742
-0.0126997
-0.00741725
-0.00216771
0.00374453
0.0107736
0.0191671
0.0287431
0.0389716
0.0492681
0.0590662
0.0680624
0.0763084
0.0840164
0.0913516
0.0984122
0.104973
0.110586
0.114736
0.117104
0.117645
0.116661
0.114642
0.112175
0.109732
0.10774
0.106402
0.105876
0.106264
0.107502
0.109364
0.11153
0.11341
0.11449
0.114335
0.112767
0.110029
0.106558
0.10289
0.0996294
0.0970841
0.0952807
0.0939389
0.0925919
0.0907707
0.0881685
0.0847439
0.0806527
0.0762729
0.0719654
0.0679627
0.064302
0.060958
0.0577847
0.0546291
0.0514758
0.0482909
0.045001
0.0415294
0.0378153
0.033898
0.0299861
0.0263447
0.0233058
0.0210379
0.0195069
0.0184534
0.0174851
0.0162599
0.0146235
0.0126434
0.0104958
0.00840139
0.00648424
0.00470501
0.00295317
0.00117868
-0.000652144
-0.00246169
-0.00410976
-0.00538652
-0.0061525
-0.00637145
-0.00611291
-0.00558176
-0.00517741
-0.00525636
-0.00609813
-0.0077956
-0.0102973
-0.0132804
-0.0164932
-0.0196093
-0.0223965
-0.0246733
-0.0262746
-0.0270628
-0.0270058
-0.0261868
-0.0248814
-0.0234882
-0.0224155
-0.021956
-0.022063
-0.0225431
-0.0230299
-0.0232356
-0.0230147
-0.022305
-0.0212178
-0.0196967
-0.0175374
-0.014301
-0.00960673
-0.00321927
0.00478791
0.0138013
0.0230514
0.0316793
0.0390321
0.0449187
0.0495955
0.0536831
0.057957
0.0629443
0.0687547
0.0750097
0.0809731
0.0857482
0.0886068
0.0891766
0.0875594
0.084254
0.0799503
0.0752871
0.0708397
0.0668378
0.0634166
0.0605828
0.0585343
0.0575618
0.0579644
0.0597666
0.0624444
0.0649004
0.0656386
0.0632645
0.0568748
0.0464459
0.0327656
0.0172922
0.00172431
-0.0125476
-0.0245864
-0.0339202
-0.0405525
-0.0447472
-0.0470158
-0.0480243
-0.0484487
-0.0489047
-0.0498662
-0.0515911
-0.0540624
-0.0570705
-0.0602384
-0.0631598
-0.0654757
-0.0668675
-0.0672127
-0.0665303
-0.0648678
-0.0623844
-0.0593332
-0.0561003
-0.0532628
-0.051573
-0.0521598
-0.0563052
-0.0654209
-0.0806548
-0.10257
-0.13065
-0.162957
-0.195538
-0.222497
-0.236295
-0.228658
-0.191178
-0.116483
0.000365273
0.159788
0.355461
0.572388
0.786432
0.966787
1.08148
1.10546
1.02857
0.860314
0.628933
0.374825
0.139531
-0.0449911
-0.163373
-0.218125
-0.225037
-0.205544
-0.17911
-0.158161
-0.147289
-0.145223
-0.148154
-0.152224
-0.155199
-0.156394
-0.156219
-0.155278
-0.153922
-0.152302
-0.150376
-0.148205
-0.145799
-0.143195
-0.140467
-0.137728
-0.134979
-0.132362
-0.129998
-0.127994
-0.126513
-0.125541
-0.125046
-0.124872
-0.124822
-0.124702
-0.124352
-0.12371
-0.122738
-0.121522
-0.120073
-0.118564
-0.117012
-0.115417
-0.113758
-0.112005
-0.110173
-0.108357
-0.106675
-0.105188
-0.103939
-0.102814
-0.101727
-0.100569
-0.0993899
-0.0982861
-0.0974359
-0.0969936
-0.0970397
-0.0975402
-0.0983694
-0.0993711
-0.100334
-0.101093
-0.101543
-0.101533
-0.101059
-0.100078
-0.0986836
-0.0970647
-0.0954531
-0.0940658
-0.0931983
-0.092913
-0.0931492
-0.0937825
-0.094618
-0.0955336
-0.0965192
-0.0977138
-0.0992691
-0.101325
-0.103899
-0.106818
-0.109877
-0.112624
-0.11455
-0.115063
-0.113508
-0.109343
-0.102153
-0.0919106
-0.07906
-0.0644927
-0.0495034
-0.0354152
-0.0233376
-0.0139046
-0.00709257
-0.00239504
0.00108563
0.00434386
0.00817135
0.0130738
0.0191385
0.0261395
0.0335396
0.0407542
0.0472225
0.0525892
0.0568917
0.0603573
0.0635809
0.0671343
0.0714088
0.0766288
0.0826271
0.0889943
0.0952522
0.100861
0.105449
0.108905
0.111225
0.112554
0.113071
0.112993
0.112408
0.111401
0.110064
0.108441
0.106596
0.104578
0.102509
0.100442
0.0984423
0.0964904
0.0945546
0.0926413
0.0907234
0.0888676
0.0871233
0.0854907
0.0839787
0.0824507
0.0807451
0.0787244
0.0763957
0.0737557
0.0710049
0.0682666
0.0656478
0.0631393
0.0607648
0.0583901
0.0559029
0.0531938
0.0500966
0.0465308
0.0424559
0.0379438
0.0332255
0.0286074
0.0244784
0.0212402
0.0190359
0.0178914
0.0175682
0.0177246
0.0178906
0.0177086
0.0169231
0.0154406
0.0133512
0.0108468
0.00812869
0.00547764
0.0030764
0.00102053
-0.000697499
-0.00210113
-0.00320536
-0.00408729
-0.00466934
-0.00499323
-0.00505914
-0.00498877
-0.00498251
-0.00519267
-0.00568045
-0.00649391
-0.00736279
-0.00813381
-0.00860557
-0.00878086
-0.00873689
-0.00882461
-0.00928866
-0.0103916
-0.0122133
-0.0144977
-0.0167994
-0.0186127
-0.0195374
-0.0194088
-0.0185046
-0.0172151
-0.0160331
-0.0153117
-0.0151128
-0.0151947
-0.0152987
-0.0151707
-0.0147088
-0.0139411
-0.0128752
-0.0112229
-0.00867069
-0.00462244
0.00131694
0.00927301
0.0187829
0.0290895
0.0391188
0.0480078
0.0552628
0.0608409
0.0651894
0.0689167
0.0726676
0.0767786
0.0812914
0.0858663
0.0900159
0.0932606
0.0952596
0.0958236
0.0949844
0.0929157
0.0897924
0.0858687
0.0814031
0.0767017
0.072264
0.0685289
0.066177
0.0656724
0.0674042
0.0711787
0.0761842
0.080839
0.0831341
0.0811411
0.0735929
0.0605203
0.0432276
0.0240168
0.00554772
-0.00997395
-0.0213572
-0.0284764
-0.0321251
-0.0334677
-0.0336864
-0.0336496
-0.0339058
-0.0345992
-0.0356337
-0.0368738
-0.0381621
-0.0393412
-0.0405133
-0.0417043
-0.0431444
-0.0448613
-0.0467598
-0.0484638
-0.049542
-0.0496772
-0.0489154
-0.0479566
-0.048008
-0.0506149
-0.0570618
-0.0680926
-0.0837547
-0.103673
-0.127139
-0.153541
-0.181843
-0.210022
-0.234103
-0.247967
-0.243161
-0.209476
-0.136932
-0.0183725
0.14689
0.349935
0.570487
0.777998
0.936815
1.01468
0.992126
0.869641
0.669066
0.42844
0.191325
-0.00504702
-0.138901
-0.207098
-0.222109
-0.204555
-0.175151
-0.148767
-0.132245
-0.125918
-0.126501
-0.129983
-0.133355
-0.135138
-0.135021
-0.133459
-0.13099
-0.12821
-0.125606
-0.123453
-0.121755
-0.120434
-0.119287
-0.118161
-0.116998
-0.115962
-0.11517
-0.114623
-0.114279
-0.113948
-0.113329
-0.112174
-0.110421
-0.108088
-0.105468
-0.102897
-0.100787
-0.0993146
-0.0983323
-0.097432
-0.0960616
-0.0938249
-0.0906347
-0.0868447
-0.0831784
-0.0804872
-0.0793865
-0.0800699
-0.0821354
-0.0847663
-0.0870235
-0.0880636
-0.0875149
-0.0855492
-0.0827364
-0.0797856
-0.0774256
-0.0760383
-0.0756789
-0.0761469
-0.07715
-0.0783403
-0.0794264
-0.0801559
-0.0802853
-0.079538
-0.0778333
-0.0752165
-0.072101
-0.0690963
-0.066851
-0.0658238
-0.0661671
-0.0676769
-0.0699285
-0.0724501
-0.0749459
-0.0773917
-0.0799645
-0.0828207
-0.0859864
-0.0893711
-0.0926418
-0.0953706
-0.097294
-0.0980977
-0.0975066
-0.0952399
-0.0909904
-0.0845789
-0.0760319
-0.0656984
-0.054363
-0.0430985
-0.032989
-0.0248142
-0.0187202
-0.0143461
-0.0109511
-0.00759157
-0.00356384
0.00150808
0.00766606
0.0146933
0.0223382
0.03026
0.038307
0.0463229
0.0541147
0.0614871
0.0682183
0.0740955
0.0789293
0.0826641
0.0852646
0.0869212
0.0879852
0.0886933
0.0893153
0.0898785
0.0902014
0.0900554
0.0891287
0.0873671
0.0848409
0.0818177
0.0786726
0.0757763
0.0734736
0.0719963
0.071429
0.0717272
0.0725834
0.0736718
0.0745753
0.0747866
0.0740146
0.0720204
0.0688483
0.0647271
0.0599784
0.0549319
0.0499594
0.0453811
0.0413541
0.0379268
0.0350336
0.0324636
0.0300138
0.0275348
0.0249971
0.0224946
0.0202694
0.018489
0.0171815
0.0162607
0.0153706
0.0142753
0.0129126
0.0113458
0.00976645
0.00840459
0.00721338
0.00608266
0.0046775
0.00254826
-0.000435519
-0.00418828
-0.0083702
-0.0122878
-0.0152221
-0.016564
-0.0159821
-0.0135831
-0.0100709
-0.00643424
-0.00380677
-0.00302186
-0.00446383
-0.00786579
-0.0124287
-0.0171496
-0.0209887
-0.0233301
-0.0240691
-0.0235976
-0.0225691
-0.0218559
-0.021946
-0.0231497
-0.0252524
-0.0276763
-0.0297619
-0.0308296
-0.0305572
-0.0290893
-0.0268461
-0.024389
-0.0221963
-0.0203939
-0.0186652
-0.016513
-0.013301
-0.00879758
-0.00308355
0.00341888
0.0101416
0.0166533
0.0227667
0.0285178
0.0341403
0.0396924
0.0450448
0.0499355
0.0539874
0.0569483
0.0586475
0.0592766
0.059185
0.0586548
0.0579679
0.0571803
0.0561309
0.0545466
0.0522806
0.0493369
0.046167
0.0433842
0.0415936
0.0410524
0.0413718
0.0414422
0.0397591
0.0348754
0.025969
0.0133053
-0.00204138
-0.0182298
-0.0333087
-0.0456748
-0.0544994
-0.0597456
-0.0618936
-0.0619068
-0.0608015
-0.0593918
-0.0583019
-0.0579649
-0.0586172
-0.0602683
-0.0628271
-0.0659102
-0.0690286
-0.0713587
-0.0720632
-0.0704355
-0.0662276
-0.0598155
-0.0522704
-0.0449208
-0.0394343
-0.0374283
-0.0403494
-0.049313
-0.0650845
-0.0878593
-0.116903
-0.149846
-0.182223
-0.207131
-0.215411
-0.196472
-0.139758
-0.0374792
0.112191
0.301851
0.513123
0.71735
0.88022
0.969511
0.964118
0.861088
0.677873
0.448539
0.214608
0.0134893
-0.130485
-0.21064
-0.235892
-0.22472
-0.197304
-0.169318
-0.149043
-0.138131
-0.134232
-0.133835
-0.134212
-0.13408
-0.133431
-0.132678
-0.132241
-0.132318
-0.132975
-0.134243
-0.135951
-0.137924
-0.139819
-0.141225
-0.141712
-0.141068
-0.139261
-0.136509
-0.133311
-0.130068
-0.127164
-0.124797
-0.122853
-0.121068
-0.119101
-0.116783
-0.114065
-0.111287
-0.108888
-0.107336
-0.106887
-0.107404
-0.108434
-0.109211
-0.109044
-0.107516
-0.104741
-0.101238
-0.097828
-0.0953239
-0.0942234
-0.0944626
-0.0955282
-0.0966416
-0.0970017
-0.0962192
-0.0943454
-0.0916575
-0.0886536
-0.0856746
-0.0829259
-0.0803688
-0.0780811
-0.0761707
-0.0750356
-0.0750494
-0.0765507
-0.0796172
-0.0838977
-0.0887909
-0.093528
-0.0974069
-0.0999012
-0.100935
-0.100904
-0.100601
-0.100952
-0.102759
-0.106471
-0.112019
-0.118901
-0.126254
-0.133222
-0.139078
-0.143334
-0.145683
-0.145887
-0.143719
-0.13881
-0.13083
-0.11957
-0.105226
-0.0882612
-0.0696377
-0.0504378
-0.0317709
-0.0145622
0.000688695
0.0138278
0.0250742
0.0348546
0.0437956
0.0524409
0.0611494
0.0700438
0.0789081
0.0873173
0.0947418
0.100785
0.105204
0.108169
0.109997
0.111104
0.111924
0.112644
0.113382
0.114057
0.114625
0.114922
0.114945
0.114574
0.113738
0.112404
0.110475
0.108099
0.105531
0.103112
0.101163
0.0997867
0.098818
0.0978685
0.0964732
0.0943067
0.0913056
0.0877669
0.0841868
0.0809641
0.0783926
0.0763918
0.0746703
0.0728623
0.0705745
0.067709
0.0643989
0.0610894
0.0581608
0.0560462
0.054802
0.0540859
0.053488
0.0523013
0.0501272
0.046932
0.0430544
0.039155
0.0359398
0.0337968
0.0328123
0.0326798
0.0328998
0.0330189
0.0328445
0.0324559
0.0320644
0.0320123
0.0324299
0.0331779
0.0340449
0.0346189
0.034594
0.0337756
0.0321293
0.0297986
0.0269538
0.0238471
0.0206011
0.0173129
0.0139973
0.0106784
0.00740426
0.0042742
0.00144816
-0.00093457
-0.00277901
-0.00407335
-0.00482939
-0.00517758
-0.00532876
-0.00550902
-0.00592726
-0.00677396
-0.0080887
-0.00971757
-0.0113602
-0.0126002
-0.0131249
-0.0127379
-0.0112271
-0.00855417
-0.00466197
0.000456729
0.0067074
0.0138704
0.0215232
0.0291555
0.0363783
0.0429462
0.0488592
0.0544037
0.0598865
0.0654666
0.0709631
0.0759559
0.0798382
0.0820881
0.0824329
0.0809004
0.0778066
0.073719
0.0692101
0.0649091
0.0614931
0.0596416
0.0596836
0.0614765
0.0642096
0.0663818
0.0662306
0.0622565
0.0537354
0.0409809
0.0252795
0.00853042
-0.00733903
-0.0209823
-0.0317314
-0.0394973
-0.0446587
-0.0478351
-0.0495842
-0.0504613
-0.0509752
-0.0514004
-0.0518871
-0.0524579
-0.0529498
-0.0531382
-0.0528297
-0.051983
-0.0506485
-0.0489561
-0.0470034
-0.0448848
-0.0427134
-0.0408268
-0.0400484
-0.0418305
-0.0480939
-0.0608815
-0.0816531
-0.110245
-0.14424
-0.178478
-0.205225
-0.215137
-0.199102
-0.149828
-0.0631949
0.0609695
0.219246
0.405015
0.60862
0.817392
1.01495
1.18099
1.29248
1.32747
1.27106
1.12172
0.894823
0.621273
0.34105
0.0933961
-0.0933101
-0.20763
-0.255675
-0.256164
-0.23218
-0.203489
-0.18211
-0.171853
-0.170681
-0.174346
-0.178995
-0.182408
-0.184034
-0.184245
-0.18355
-0.182405
-0.18101
-0.179632
-0.178488
-0.177663
-0.177173
-0.176926
-0.176753
-0.176456
-0.175863
-0.174941
-0.173679
-0.172162
-0.170503
-0.168868
-0.167371
-0.166159
-0.165186
-0.164325
-0.163314
-0.161785
-0.159578
-0.156615
-0.153181
-0.149713
-0.146706
-0.144613
-0.143642
-0.143676
-0.144337
-0.145303
-0.14623
-0.146858
-0.147102
-0.147017
-0.146713
-0.14627
-0.145739
-0.145147
-0.144511
-0.143827
-0.143243
-0.142841
-0.142718
-0.142771
-0.142822
-0.14261
-0.141951
-0.140944
-0.139849
-0.139202
-0.139594
-0.141222
-0.144066
-0.147698
-0.151553
-0.155067
-0.157918
-0.160058
-0.161712
-0.163147
-0.164651
-0.166422
-0.168347
-0.170157
-0.171343
-0.171288
-0.169265
-0.164744
-0.157426
-0.147275
-0.134519
-0.119537
-0.102658
-0.0842442
-0.0647229
-0.0446254
-0.0246648
-0.00568255
0.0115576
0.0265123
0.0390867
0.049595
0.0585972
0.0666875
0.0744622
0.0821215
0.0895774
0.0966109
0.102787
0.107745
0.111327
0.113563
0.114668
0.114967
0.114787
0.114255
0.113447
0.112332
0.110839
0.108991
0.106947
0.104875
0.102963
0.101267
0.0997186
0.0982408
0.0966323
0.0947185
0.0923821
0.089588
0.0862694
0.082498
0.0784766
0.0745028
0.0709192
0.068178
0.0664535
0.0658076
0.0659641
0.0664719
0.0667798
0.0664785
0.0653109
0.0631858
0.0603041
0.056896
0.0532061
0.0494983
0.0459087
0.0424654
0.0392557
0.0362678
0.0336037
0.031293
0.0293552
0.0277743
0.0263732
0.0249718
0.0234131
0.0216669
0.0198761
0.0181118
0.0165447
0.0151706
0.0138528
0.0124673
0.0109164
0.00916571
0.0073633
0.00568016
0.00415642
0.002891
0.00181287
0.00074446
-0.000343814
-0.00154695
-0.00279252
-0.0040359
-0.00521802
-0.00623517
-0.00702307
-0.00765426
-0.00811851
-0.00852723
-0.00896137
-0.00950025
-0.0101521
-0.0108275
-0.0113535
-0.0115973
-0.0114679
-0.0110358
-0.0104811
-0.0100823
-0.0100728
-0.0105178
-0.0113022
-0.0122244
-0.012976
-0.0131198
-0.0122772
-0.00997017
-0.00593041
3.02995e-5
0.00769733
0.0165253
0.0257095
0.0345722
0.0425688
0.0495827
0.0558961
0.061907
0.0678488
0.0737032
0.0789686
0.0830237
0.0853328
0.0856355
0.0840737
0.0812042
0.0776263
0.073945
0.0707022
0.0683049
0.0672393
0.0679917
0.0707289
0.0751371
0.0801458
0.0840531
0.0849534
0.0813995
0.0728794
0.0599446
0.0441502
0.0275035
0.0117727
-0.00182061
-0.012809
-0.0212956
-0.0276255
-0.0322877
-0.0355507
-0.0376494
-0.0388002
-0.0392323
-0.0392803
-0.0393424
-0.0398882
-0.0412556
-0.043554
-0.0466262
-0.0499869
-0.0530126
-0.0549934
-0.0555323
-0.0546148
-0.0527661
-0.0509818
-0.0508119
-0.0541372
-0.0629873
-0.0789556
-0.102764
-0.13374
-0.168934
-0.202698
-0.22687
-0.231658
-0.206558
-0.141688
-0.0300033
0.130314
0.333092
0.562094
0.790767
0.984914
1.10914
1.13582
1.05368
0.872874
0.623969
0.350518
0.0974878
-0.100307
-0.225674
-0.280555
-0.281297
-0.250884
-0.211039
-0.176575
-0.154161
-0.14406
-0.142964
-0.146684
-0.151812
-0.156346
-0.159571
-0.161378
-0.161917
-0.161418
-0.160197
-0.158499
-0.156504
-0.154381
-0.152266
-0.15032
-0.14862
-0.147252
-0.146179
-0.145269
-0.144328
-0.143098
-0.14144
-0.139332
-0.136849
-0.134143
-0.131325
-0.128489
-0.125621
-0.122646
-0.119546
-0.116479
-0.113548
-0.111002
-0.109095
-0.107925
-0.107417
-0.107338
-0.10737
-0.107173
-0.106537
-0.105356
-0.103789
-0.102057
-0.100443
-0.0991545
-0.0982461
-0.0976336
-0.0971556
-0.0967161
-0.096235
-0.0957605
-0.0953797
-0.0950757
-0.0948183
-0.0944971
-0.0939567
-0.0930993
-0.0919552
-0.0906131
-0.0891883
-0.0878814
-0.0868103
-0.0861092
-0.0857877
-0.0858449
-0.0861436
-0.0865569
-0.0869835
-0.087503
-0.0882871
-0.0895662
-0.0915365
-0.094154
-0.097177
-0.100052
-0.102133
-0.102754
-0.101359
-0.0976125
-0.0913599
-0.0827869
-0.0723513
-0.0606964
-0.04866
-0.0370855
-0.0266591
-0.0177912
-0.0105806
-0.00472199
0.000267114
0.00492014
0.00976875
0.0150853
0.0210512
0.0276871
0.0349703
0.0427657
0.0510242
0.0595276
0.068123
0.0765005
0.0843711
0.0914365
0.0974133
0.102133
0.105444
0.107387
0.108092
0.107679
0.106411
0.104597
0.102595
0.100787
0.0995518
0.0991412
0.0994814
0.100292
0.101069
0.101311
0.100667
0.0991063
0.0969147
0.0945441
0.0923751
0.0906729
0.0893835
0.0882983
0.0871588
0.085645
0.0835033
0.0806382
0.0770651
0.072892
0.0683705
0.0638569
0.0597178
0.0561601
0.0532589
0.0509081
0.0488296
0.0466797
0.0443008
0.0416745
0.0389736
0.0363813
0.0340405
0.0319688
0.0300133
0.0280574
0.0260702
0.0240608
0.0221696
0.0204687
0.0188346
0.0170895
0.0150398
0.0125196
0.00964008
0.0067651
0.00426031
0.00242394
0.00129408
0.000730963
0.000338686
-0.000337072
-0.00161507
-0.00358137
-0.00619168
-0.00919102
-0.0123222
-0.01527
-0.0178193
-0.0197828
-0.0210562
-0.0216313
-0.0216437
-0.0212906
-0.0207968
-0.0203282
-0.0200043
-0.0199296
-0.0201834
-0.020797
-0.0217887
-0.0232197
-0.0248691
-0.0264449
-0.0275761
-0.0279386
-0.0274379
-0.0260687
-0.0240961
-0.0219545
-0.0199923
-0.0185475
-0.0178377
-0.0178613
-0.0184766
-0.0192169
-0.0194499
-0.0184679
-0.0155983
-0.0104037
-0.00287716
0.00651956
0.0168815
0.0271933
0.0365545
0.0444787
0.0510005
0.0566565
0.0621238
0.0679639
0.0744029
0.0812543
0.0879677
0.0937625
0.0979876
0.100331
0.100768
0.0996706
0.0975854
0.0951091
0.092737
0.0905559
0.088281
0.0854905
0.0817556
0.0771969
0.0725068
0.0690098
0.0681975
0.0711004
0.0777975
0.0869278
0.0959929
0.102045
0.102528
0.0961811
0.083266
0.0653538
0.0449546
0.0245825
0.00618467
-0.00904997
-0.0206378
-0.0287263
-0.0337258
-0.0363836
-0.0375368
-0.0381111
-0.0388848
-0.0403243
-0.0423915
-0.0447043
-0.0466094
-0.0475431
-0.0473184
-0.0460617
-0.0442347
-0.0423028
-0.0404573
-0.0386738
-0.0369218
-0.035359
-0.0344171
-0.0350323
-0.0386071
-0.0466827
-0.0605888
-0.0812122
-0.108536
-0.141249
-0.176134
-0.207649
-0.228193
-0.22845
-0.198352
-0.128706
-0.0133688
0.147814
0.346358
0.56352
0.771112
0.935457
1.02476
1.018
0.911868
0.723642
0.487519
0.245663
0.0365368
-0.114517
-0.200076
-0.229018
-0.220256
-0.194591
-0.16828
-0.14983
-0.140868
-0.138892
-0.140311
-0.142521
-0.144391
-0.145825
-0.147066
-0.148042
-0.148328
-0.147541
-0.145553
-0.142567
-0.139074
-0.135629
-0.132519
-0.129838
-0.127368
-0.124932
-0.122399
-0.119937
-0.117977
-0.116979
-0.117132
-0.118331
-0.120044
-0.121511
-0.121972
-0.121032
-0.118807
-0.115744
-0.11252
-0.109758
-0.107798
-0.106547
-0.105662
-0.10456
-0.102746
-0.100032
-0.0964824
-0.0925322
-0.0889319
-0.0862327
-0.0848838
-0.0848577
-0.0857806
-0.0870663
-0.087953
-0.0879005
-0.0866818
-0.0843808
-0.0815299
-0.0789418
-0.0774308
-0.0775949
-0.0795741
-0.0829033
-0.0865945
-0.0894555
-0.0904387
-0.0891208
-0.085813
-0.0815136
-0.0775683
-0.0751081
-0.0748395
-0.0766852
-0.0798845
-0.0835261
-0.0866684
-0.0887811
-0.0897696
-0.0899322
-0.0897984
-0.0897908
-0.0901489
-0.0908797
-0.0916524
-0.0919505
-0.0912003
-0.0888927
-0.0846115
-0.0782862
-0.070072
-0.0604249
-0.0499513
-0.0393911
-0.029296
-0.0200269
-0.0116047
-0.0037024
0.00422329
0.0126254
0.0216784
0.0312861
0.0409013
0.0499594
0.0579954
0.0648888
0.0708106
0.0761073
0.081019
0.0856899
0.0899858
0.0936054
0.096264
0.0978211
0.0982726
0.0978386
0.0967613
0.0953821
0.0938808
0.0924385
0.0910595
0.0898206
0.0887193
0.0877616
0.0869192
0.0861411
0.0852995
0.0841415
0.0825486
0.0804699
0.0779919
0.0753652
0.0729334
0.0709143
0.0694255
0.0684076
0.0676298
0.0668243
0.0655995
0.0636518
0.060709
0.0567689
0.0520799
0.0471164
0.0425573
0.0389694
0.0367532
0.0356552
0.0351046
0.0343059
0.0326319
0.0298733
0.0264332
0.0230127
0.0204485
0.0192406
0.0194759
0.0208277
0.0225862
0.024071
0.024722
0.0241836
0.0223451
0.019418
0.0157657
