0.436869
0.167655
-0.047653
-0.187733
-0.25273
-0.259617
-0.233345
-0.197388
-0.167553
-0.150074
-0.14427
-0.146101
-0.151412
-0.157421
-0.163101
-0.168349
-0.173191
-0.177416
-0.18068
-0.182618
-0.183222
-0.18255
-0.180755
-0.17806
-0.174701
-0.170959
-0.167143
-0.163615
-0.160616
-0.158389
-0.156938
-0.156164
-0.155785
-0.155515
-0.154971
-0.153943
-0.152226
-0.149825
-0.146834
-0.143462
-0.140009
-0.136853
-0.134207
-0.132207
-0.13075
-0.129556
-0.128219
-0.126437
-0.12416
-0.121509
-0.118919
-0.116731
-0.115129
-0.114088
-0.113368
-0.112711
-0.111901
-0.110885
-0.109824
-0.10888
-0.108227
-0.107921
-0.108068
-0.108651
-0.109651
-0.111085
-0.112858
-0.11485
-0.116904
-0.118819
-0.120374
-0.121539
-0.122224
-0.122499
-0.122447
-0.12228
-0.122122
-0.122175
-0.122698
-0.123833
-0.125789
-0.128469
-0.131741
-0.135317
-0.13876
-0.141564
-0.143233
-0.14335
-0.141488
-0.137443
-0.131109
-0.122514
-0.111953
-0.099825
-0.0866843
-0.0730721
-0.0594506
-0.0460059
-0.0327796
-0.0195944
-0.00616235
0.00774605
0.0222549
0.0372323
0.0524135
0.0673366
0.0815932
0.0946692
0.106185
0.115902
0.123677
0.129556
0.133709
0.136426
0.13795
0.138648
0.138784
0.138596
0.138335
0.138164
0.138308
0.138885
0.13992
0.141277
0.142704
0.143817
0.144295
0.143918
0.142624
0.140615
0.13816
0.135448
0.132602
0.129626
0.126543
0.123325
0.120108
0.117063
0.114299
0.111794
0.109284
0.106446
0.102993
0.0988412
0.0941538
0.0894491
0.0852354
0.0820206
0.0800293
0.0791924
0.0791253
0.0793181
0.079188
0.0783583
0.0766378
0.0740951
0.0709505
0.067639
0.0645412
0.0620217
0.0601382
0.0587689
0.0576019
0.056146
0.0539856
0.0509148
0.0469341
0.042178
0.0368642
0.0312042
0.0254816
0.0200397
0.0153618
0.0118688
0.00980606
0.00919131
0.00968972
0.0107192
0.0116363
0.011966
0.0115838
0.01056
0.00917106
0.00765066
0.006111
0.00460122
0.00312083
0.00167114
0.000231128
-0.00115934
-0.00251455
-0.00406187
-0.00598496
-0.00851797
-0.0117168
-0.0154505
-0.0193043
-0.0227976
-0.0255448
-0.0273013
-0.0280847
-0.0281026
-0.0276918
-0.0270971
-0.0264188
-0.0256139
-0.0246468
-0.0233985
-0.0218502
-0.0200055
-0.0177158
-0.0147283
-0.0106832
-0.00515774
0.00211006
0.0110042
0.0210682
0.0315299
0.0415512
0.0504917
0.0580307
0.0642422
0.0694329
0.0739907
0.0781887
0.0820242
0.0852922
0.0875955
0.0885245
0.0877266
0.0852032
0.0812384
0.0765056
0.0716057
0.0670708
0.0631747
0.0600169
0.0577944
0.0570473
0.0586726
0.0636179
0.0723725
0.0843744
0.0978193
0.109836
0.117301
0.117743
0.110112
0.094947
0.0741742
0.0504788
0.0265567
0.00456911
-0.0141407
-0.0290927
-0.0402989
-0.0483232
-0.0538573
-0.0576583
-0.0604273
-0.0626705
-0.0646663
-0.0664918
-0.0681818
-0.0695734
-0.0705698
-0.0709861
-0.0705858
-0.0692444
-0.0668704
-0.0635839
-0.0598326
-0.0563399
-0.0542285
-0.0548752
-0.0599627
-0.0712161
-0.0899818
-0.116681
-0.150195
-0.186986
-0.220892
-0.24326
-0.243725
-0.211387
-0.135948
-0.0102532
0.166951
0.387703
0.632797
0.871525
1.06578
1.17794
1.18136
1.06955
0.860178
0.591769
0.313378
0.0708468
-0.105058
-0.204884
-0.238831
-0.229332
-0.201286
-0.174057
-0.157572
-0.153184
-0.157251
-0.164815
-0.172065
-0.176962
-0.179157
-0.17903
-0.177144
-0.173971
-0.170025
-0.165871
-0.162063
-0.158945
-0.15671
-0.155333
-0.15468
-0.15459
-0.154882
-0.155296
-0.155527
-0.155219
-0.154094
-0.152088
-0.149488
-0.146731
-0.144344
-0.142706
-0.141863
-0.141505
-0.14115
-0.140413
-0.138997
-0.136989
-0.134568
-0.131964
-0.129338
-0.126707
-0.124061
-0.121393
-0.118752
-0.116255
-0.114075
-0.11232
-0.111031
-0.110181
-0.109717
-0.109533
-0.10962
-0.109932
-0.110342
-0.110674
-0.110749
-0.110405
-0.10964
-0.108655
-0.107763
-0.107242
-0.107236
-0.107591
-0.107973
-0.107971
-0.107318
-0.106066
-0.104475
-0.102988
-0.10197
-0.101615
-0.101918
-0.102793
-0.104069
-0.105659
-0.107591
-0.10986
-0.112455
-0.115222
-0.117833
-0.119846
-0.120691
-0.119811
-0.116638
-0.110801
-0.102121
-0.0907842
-0.0773903
-0.0627197
-0.047731
-0.0332159
-0.0196676
-0.00721064
0.00438129
0.015534
0.026601
0.0377619
0.0489431
0.0598971
0.0702144
0.0795246
0.0875721
0.0941766
0.0993614
0.103268
0.10613
0.108131
0.109473
0.110277
0.110548
0.110209
0.109161
0.107354
0.104912
0.102089
0.0992625
0.096765
0.0947633
0.0933235
0.0922764
0.0913721
0.0904761
0.089545
0.08866
0.087987
0.0875167
0.0870626
0.0863759
0.085131
0.0831398
0.080426
0.0771868
0.0737893
0.0705579
0.0676772
0.0651817
0.062962
0.0607557
0.0584038
0.0557188
0.0526084
0.0490233
0.0450369
0.0407799
0.0364498
0.0324047
0.029013
0.0265039
0.0249295
0.0241654
0.0239434
0.0239356
0.0239555
0.0237943
0.02336
0.022636
0.0215828
0.0202652
0.0188309
0.0174064
0.0161892
0.015245
0.0144733
0.0136306
0.0124061
0.0105294
0.00782828
0.0043141
0.000171407
-0.00421585
-0.00832089
-0.0116587
-0.0138144
-0.0145445
-0.0139044
-0.0120793
-0.00960212
-0.00686613
-0.00426618
-0.00208299
-0.000518531
0.00038183
0.000578765
2.78279e-5
-0.00129212
-0.00324738
-0.00568673
-0.00829066
-0.0106569
-0.0124219
-0.0133374
-0.0134031
-0.0127883
-0.0118253
-0.010891
-0.0102312
-0.00988761
-0.00971752
-0.00948471
-0.00901311
-0.0082311
-0.0071931
-0.00577304
-0.00371955
-0.000570131
0.00434764
0.0115518
0.0210571
0.0323054
0.0441931
0.0553742
0.0647429
0.0718709
0.0770337
0.0810664
0.0849981
0.089459
0.0944447
0.0993536
0.103179
0.10495
0.104153
0.100766
0.0952865
0.0885306
0.0813225
0.0745062
0.0689318
0.0654372
0.0649052
0.0678108
0.0738616
0.0817974
0.0894309
0.0941867
0.0938262
0.0871856
0.0744962
0.0573753
0.0381908
0.0194985
0.00335072
-0.00905878
-0.0173036
-0.02181
-0.0234973
-0.0235978
-0.0234609
-0.0242088
-0.0264436
-0.0301893
-0.0348272
-0.0393952
-0.0428906
-0.0447397
-0.0449358
-0.0440006
-0.0427703
-0.0419595
-0.0418515
-0.0422122
-0.0424747
-0.0420935
-0.0409224
-0.0394235
-0.0386628
-0.0402305
-0.0459647
-0.0574206
-0.0756783
-0.100872
-0.131964
-0.166262
-0.19897
-0.223105
-0.229902
-0.209289
-0.15108
-0.0470302
0.106272
0.304392
0.532338
0.764043
0.96512
1.09932
1.13771
1.0676
0.897969
0.658613
0.392817
0.14545
-0.0488497
-0.173337
-0.230533
-0.237263
-0.216308
-0.188241
-0.166066
-0.154359
-0.151619
-0.153808
-0.157115
-0.159439
-0.160445
-0.16056
-0.160389
-0.160026
-0.159354
-0.158127
-0.156268
-0.153875
-0.151258
-0.148605
-0.146102
-0.143752
-0.141482
-0.139169
-0.136686
-0.134116
-0.131448
-0.128789
-0.126274
-0.123999
-0.122172
-0.120965
-0.120449
-0.120604
-0.121248
-0.122051
-0.12261
-0.122603
-0.121731
-0.120022
-0.117616
-0.114854
-0.11214
-0.109878
-0.108219
-0.107223
-0.106739
-0.106473
-0.106202
-0.105766
-0.105194
-0.104569
-0.104086
-0.103847
-0.103822
-0.103948
-0.104046
-0.103936
-0.103621
-0.103159
-0.102675
-0.102293
-0.102022
-0.101774
-0.101393
-0.100713
-0.0997131
-0.0985055
-0.0973702
-0.0965591
-0.0963634
-0.0969141
-0.0981421
-0.0998901
-0.101917
-0.103963
-0.105862
-0.107607
-0.109235
-0.110874
-0.112588
-0.114202
-0.115279
-0.115107
-0.112708
-0.107228
-0.098208
-0.0858602
-0.0712661
-0.0560846
-0.0422184
-0.0313349
-0.0242593
-0.0209177
-0.0202898
-0.0209113
-0.0212175
-0.0200254
-0.0167135
-0.0111767
-0.00369686
0.00510932
0.0146627
0.0243417
0.0337395
0.0425238
0.0505766
0.0579686
0.0648802
0.0715223
0.0779917
0.084259
0.0900441
0.0948726
0.0983724
0.100238
0.100467
0.0993935
0.0975009
0.0953807
0.0935482
0.0922076
0.0913436
0.0906782
0.0897884
0.0882529
0.0856711
0.0819764
0.0772987
0.0722034
0.0673168
0.0633313
0.0607298
0.0595884
0.0596789
0.0604979
0.0614579
0.0621245
0.0623337
0.0621952
0.0619991
0.0619795
0.0621974
0.0624663
0.0624428
0.0617467
0.0600314
0.0573333
0.0538575
0.0501856
0.0467963
0.0439507
0.041646
0.0394652
0.0368203
0.0332167
0.0284047
0.0225959
0.0163775
0.0105266
0.00571948
0.00228815
0.000190373
-0.000909076
-0.00144937
-0.00184937
-0.00241962
-0.00327567
-0.0044204
-0.00576813
-0.00716016
-0.00834093
-0.00899165
-0.00885349
-0.00776933
-0.00597971
-0.00388774
-0.0021578
-0.00144359
-0.00214871
-0.00430403
-0.00764719
-0.0115008
-0.0152284
-0.0182581
-0.0203055
-0.0215509
-0.022388
-0.0232337
-0.024411
-0.0260399
-0.0278314
-0.0293521
-0.0301022
-0.0297943
-0.0283786
-0.0261415
-0.0235437
-0.0210019
-0.0188294
-0.0170693
-0.0156245
-0.0143257
-0.0130514
-0.011764
-0.0105332
-0.00932467
-0.00804544
-0.0064258
-0.00392279
-2.00926e-5
0.00559975
0.0131091
0.022279
0.0323796
0.042554
0.0519628
0.0599408
0.0664124
0.0716791
0.0762553
0.0804646
0.0842347
0.0870274
0.0880869
0.0869189
0.0835617
0.078832
0.0738528
0.069693
0.0668626
0.0651754
0.0638714
0.0622423
0.0600813
0.0577979
0.0561275
0.0556329
0.0559152
0.0556995
0.0532363
0.0468447
0.0358135
0.0207399
0.00331089
-0.0142071
-0.0298763
-0.0424841
-0.0518758
-0.0586655
-0.0637673
-0.0679939
-0.071712
-0.0749983
-0.0775708
-0.0790151
-0.0790083
-0.0775043
-0.0747662
-0.0712086
-0.067421
-0.0639947
-0.0614022
-0.0599059
-0.0595142
-0.0600776
-0.0611998
-0.0624113
-0.0632889
-0.0635957
-0.0635194
-0.063697
-0.0651434
-0.0692352
-0.0773457
-0.0905694
-0.1095
-0.133911
-0.162522
-0.192565
-0.219497
-0.236911
-0.236861
-0.210317
-0.148123
-0.0429714
0.108018
0.300554
0.520711
0.744418
0.939922
1.07351
1.1177
1.05942
0.905068
0.68041
0.424346
0.178756
-0.0222208
-0.159761
-0.232483
-0.253015
-0.241016
-0.21588
-0.19153
-0.174683
-0.166078
-0.163342
-0.163377
-0.163947
-0.164058
-0.163584
-0.162504
-0.16074
-0.158079
-0.154383
-0.149774
-0.14453
-0.139019
-0.133565
-0.128525
-0.124163
-0.120858
-0.119047
-0.119118
-0.121229
-0.124997
-0.129554
-0.13374
-0.136538
-0.137458
-0.136684
-0.135108
-0.133795
-0.133466
-0.134193
-0.135405
-0.136046
-0.135215
-0.132528
-0.128376
-0.123695
-0.119588
-0.116889
-0.11587
-0.116231
-0.117207
-0.118015
-0.118004
-0.116872
-0.114718
-0.111916
-0.108978
-0.106297
-0.104212
-0.102826
-0.102077
-0.101825
-0.101859
-0.102066
-0.102518
-0.103347
-0.104745
-0.106831
-0.109583
-0.112672
-0.115607
-0.11782
-0.118868
-0.118497
-0.116907
-0.114695
-0.11258
-0.111312
-0.111368
-0.112939
-0.115893
-0.119798
-0.124237
-0.128832
-0.133195
-0.137013
-0.13992
-0.141353
-0.140828
-0.137799
-0.131996
-0.123487
-0.11288
-0.101153
-0.0894196
-0.0787426
-0.0696496
-0.0621179
-0.0555512
-0.0490606
-0.0417715
-0.0330458
-0.0226173
-0.0105732
0.00269481
0.0167028
0.0309173
0.0447872
0.0578176
0.0696584
0.0800467
0.0889446
0.0965284
0.102932
0.108563
0.113606
0.118223
0.122341
0.125827
0.128425
0.129903
0.130191
0.129357
0.127653
0.125353
0.122737
0.119952
0.117029
0.113868
0.110339
0.106524
0.102573
0.098883
0.0958031
0.0936317
0.0924324
0.0920124
0.0919953
0.0918842
0.0913659
0.0901531
0.0883104
0.0860095
0.0835372
0.0811539
0.0789873
0.0770701
0.0752002
0.0731908
0.0708469
0.0682172
0.065409
0.0626582
0.0601599
0.0578668
0.0556212
0.0530183
0.0498087
0.0457831
0.0410722
0.0360355
0.0311095
0.0267555
0.0233216
0.0209685
0.019717
0.0194646
0.0200054
0.0210819
0.0224342
0.0238062
0.0250747
0.0262379
0.027375
0.0286174
0.0299773
0.0313457
0.032449
0.0329329
0.0324653
0.0309383
0.028454
0.0253122
0.02196
0.0188103
0.0160328
0.0137109
0.0116079
0.00942443
0.00679742
0.00360104
-0.000152542
-0.00414109
-0.00796774
-0.0111845
-0.0134931
-0.0147961
-0.0150983
-0.0146129
-0.013422
-0.0117781
-0.00977212
-0.00762783
-0.00553798
-0.0036903
-0.00229029
-0.00144292
-0.00122501
-0.0015622
-0.00232781
-0.00316285
-0.003562
-0.00304178
-0.000937489
0.00301679
0.00889082
0.0163355
0.0247712
0.0334533
0.041727
0.0491462
0.0556281
0.0614328
0.0670148
0.0729038
0.0794508
0.0867367
0.0943057
0.101352
0.10676
0.109511
0.10897
0.105094
0.0985162
0.0903956
0.0819915
0.0743559
0.0682225
0.0639947
0.0618249
0.0620074
0.0646652
0.0696049
0.0760282
0.0824103
0.0868552
0.0875361
0.0832984
0.0740552
0.0607593
0.0450833
0.0288321
0.0134107
-0.000314793
-0.0120176
-0.0216365
-0.0293083
-0.0352223
-0.0395666
-0.0426226
-0.0447647
-0.0464288
-0.0479823
-0.0497202
-0.0517269
-0.0539313
-0.0562308
-0.0583998
-0.0602595
-0.0616666
-0.0623568
-0.0620544
-0.0604867
-0.0575388
-0.0534288
-0.0487984
-0.0448245
-0.0432535
-0.0460624
-0.0551249
-0.0717802
-0.096295
-0.127412
-0.162016
-0.194849
-0.21875
-0.225336
-0.205959
-0.152752
-0.0597742
0.0758192
0.252778
0.464666
0.698885
0.936625
1.15364
1.3227
1.41785
1.42007
1.32232
1.13291
0.874922
0.582211
0.292296
0.0386737
-0.155671
-0.281304
-0.342156
-0.351791
-0.32821
-0.289199
-0.248777
-0.215686
-0.193444
-0.181724
-0.177934
-0.178708
-0.181152
-0.183315
-0.184276
-0.183934
-0.182656
-0.180944
-0.179129
-0.177412
-0.175987
-0.174982
-0.17453
-0.174792
-0.17568
-0.176895
-0.177874
-0.178048
-0.176925
-0.174475
-0.171076
-0.167391
-0.164168
-0.161792
-0.160342
-0.159407
-0.158403
-0.156811
-0.154468
-0.151526
-0.148374
-0.14558
-0.143446
-0.142052
-0.141235
-0.140745
-0.140246
-0.139586
-0.13868
-0.137541
-0.136342
-0.135229
-0.134271
-0.133614
-0.133444
-0.133778
-0.134617
-0.135814
-0.137014
-0.137913
-0.138129
-0.137423
-0.135737
-0.133308
-0.130547
-0.128073
-0.126497
-0.126129
-0.12713
-0.129306
-0.132351
-0.135985
-0.140011
-0.144278
-0.148859
-0.15368
-0.158552
-0.163089
-0.166902
-0.169599
-0.170886
-0.170641
-0.168765
-0.16501
-0.159029
-0.150343
-0.138549
-0.123674
-0.10631
-0.0876503
-0.0692224
-0.0525113
-0.0385053
-0.0275275
-0.0191431
-0.0125982
-0.00707704
-0.00196024
0.0030086
0.00792402
0.0129286
0.0183027
0.0245649
0.0322269
0.0416347
0.052676
0.0648857
0.0774491
0.0894857
0.100208
0.109132
0.115992
0.120727
0.123524
0.124577
0.124291
0.123064
0.121471
0.119981
0.118849
0.118119
0.117522
0.116613
0.114897
0.112134
0.108372
0.104066
0.0998916
0.0965411
0.0943961
0.0934983
0.0935872
0.0941325
0.0946867
0.0949895
0.0949979
0.0947968
0.0944701
0.0940534
0.0933826
0.092367
0.0909039
0.0891223
0.0870519
0.0847525
0.0822374
0.079398
0.0761405
0.0724064
0.0682566
0.0638479
0.0594343
0.0552993
0.0517463
0.0489665
0.0472109
0.0465722
0.0470876
0.0486146
0.0507129
0.0529159
0.0546597
0.0554744
0.0551819
0.0538439
0.0517968
0.0494791
0.0472552
0.0453118
0.0436625
0.0421322
0.0405895
0.0390035
0.0375306
0.0363712
0.0356222
0.0352166
0.0348536
0.0341353
0.0326465
0.0302634
0.0271092
0.023617
0.0202398
0.0173921
0.0154262
0.0144483
0.0144381
0.015245
0.0167324
0.0186572
0.0207822
0.0228351
0.0246497
0.0260528
0.0268988
0.0270907
0.0266205
0.0255172
0.0239294
0.0220852
0.0202931
0.0188577
0.0180632
0.0181435
0.0194327
0.0222478
0.0268495
0.0333205
0.0414141
0.0504654
0.0595797
0.0678438
0.0745951
0.0796739
0.083392
0.0864316
0.0895506
0.0933083
0.0979793
0.103473
0.109416
0.115229
0.120233
0.123856
0.125629
0.125331
0.123089
0.119205
0.114215
0.108762
0.103449
0.0989316
0.0958611
0.0946786
0.0954478
0.0976034
0.0998632
0.100395
0.0973873
0.0896618
0.0770923
0.0607887
0.0426321
0.0249288
0.00954889
-0.00238448
-0.0106289
-0.0156981
-0.0185112
-0.0201533
-0.0216406
-0.0236497
-0.0265112
-0.030035
-0.0338394
-0.0372953
-0.0398911
-0.0413358
-0.041682
-0.0412953
-0.0405552
-0.0398407
-0.0393965
-0.0394069
-0.0400835
-0.0419626
-0.0458511
-0.0526197
-0.062744
-0.0762117
-0.0922084
-0.10963
-0.127743
-0.146353
-0.165948
-0.18701
-0.208858
-0.228748
-0.241482
-0.239783
-0.215282
-0.159492
-0.0649365
0.073205
0.254852
0.472362
0.708088
0.934159
1.11552
1.21723
1.21406
1.09961
0.890251
0.622469
0.343178
0.0970457
-0.0852639
-0.193025
-0.23434
-0.229815
-0.203164
-0.173598
-0.151975
-0.141061
-0.138687
-0.141209
-0.145526
-0.15011
-0.154519
-0.158662
-0.162232
-0.164626
-0.165408
-0.164457
-0.16219
-0.159368
-0.156837
-0.15526
-0.154812
-0.155274
-0.156063
-0.156616
-0.156431
-0.155349
-0.153544
-0.15121
-0.148666
-0.146015
-0.143172
-0.139928
-0.136067
-0.13145
-0.126263
-0.120874
-0.115881
-0.11188
-0.109316
-0.108315
-0.108622
-0.109734
-0.11106
-0.112068
-0.112499
-0.112336
-0.111828
-0.111303
-0.111123
-0.111432
-0.112309
-0.11357
-0.115009
-0.116312
-0.117136
-0.117237
-0.116328
-0.114267
-0.111148
-0.107256
-0.103111
-0.099331
-0.0963272
-0.0942871
-0.0930487
-0.0923021
-0.0916369
-0.0909258
-0.0902304
-0.089772
-0.0898774
-0.0907513
-0.0924429
-0.0948743
-0.0979007
-0.101466
-0.105576
-0.110257
-0.115324
-0.12044
-0.12494
-0.127875
-0.128199
-0.125127
-0.118148
-0.107383
-0.0934966
-0.0775211
-0.0607196
-0.0441465
-0.0285744
-0.0142904
-0.00128954
0.0107442
0.022191
0.0332287
0.0440023
0.0544282
0.0643574
0.0735214
0.0816425
0.0884402
0.093713
0.0974377
0.0998014
0.101213
0.102207
0.10333
0.104887
0.106913
0.109124
0.111039
0.112243
0.112454
0.111666
0.110033
0.107869
0.105466
0.103039
0.100696
0.0984273
0.0962844
0.094243
0.092293
0.0903686
0.0883978
0.086199
0.0835591
0.0803814
0.0766129
0.0723545
0.0677718
0.0631914
0.0589876
0.0554217
0.0528442
0.0512902
0.0507391
0.0508885
0.0512679
0.0513704
0.0507719
0.0492465
0.0468329
0.0437858
0.0404641
0.0372074
0.0342219
0.0314482
0.028732
0.0258728
0.0227326
0.0194005
0.0161093
0.0130955
0.0105203
0.00829327
0.00623467
0.00406089
0.0015902
-0.00107292
-0.00372673
-0.00597161
-0.00763259
-0.00856449
-0.00888003
-0.00883603
-0.00863272
-0.00839499
-0.00810544
-0.00767142
-0.007091
-0.00643486
-0.00588965
-0.00568227
-0.00590186
-0.00650361
-0.00725895
-0.00788242
-0.00819202
-0.0081237
-0.00774449
-0.00723427
-0.00681819
-0.00666143
-0.00683377
-0.0074202
-0.00851386
-0.0101591
-0.0122716
-0.0147378
-0.0173629
-0.0197988
-0.0215536
-0.0219003
-0.0200541
-0.0153496
-0.00744814
0.0033792
0.0160261
0.0291232
0.0411697
0.0511636
0.0588452
0.0647079
0.0697418
0.0748334
0.0802506
0.0856718
0.0902159
0.0929772
0.0932903
0.0911276
0.0868876
0.0813267
0.0752232
0.0692742
0.0640791
0.0603239
0.0588204
0.0603302
0.0652441
0.0731253
0.0824034
0.0906166
0.0951481
0.0938015
0.0856244
0.0712309
0.0525558
0.0323363
0.013227
-0.00290303
-0.0151125
-0.0236129
-0.0291893
-0.0329422
-0.0358749
-0.0386852
-0.0415739
-0.044411
-0.0468415
-0.0485561
-0.0494721
-0.0498421
-0.0500887
-0.050614
-0.0515556
-0.0525226
-0.0527928
-0.0514669
-0.0480995
-0.0430788
-0.0376596
-0.0338162
-0.0335921
-0.038524
-0.049193
-0.0653749
-0.0863232
-0.111297
-0.139809
-0.171259
-0.203785
-0.233391
-0.253252
-0.253684
-0.223048
-0.14989
-0.02615
0.149132
0.366461
0.60415
0.829745
1.00511
1.09551
1.07925
0.955504
0.746305
0.491347
0.237149
0.0243131
-0.122598
-0.199076
-0.217597
-0.200194
-0.169407
-0.141686
-0.12474
-0.119052
-0.121128
-0.126553
-0.132046
-0.135899
-0.137745
-0.137781
-0.136349
-0.133908
-0.130921
-0.127915
-0.125302
-0.123405
-0.122266
-0.121741
-0.121592
-0.121546
-0.121394
-0.120915
-0.119969
-0.118514
-0.116619
-0.114399
-0.112144
-0.110227
-0.108962
-0.108592
-0.10908
-0.11027
-0.111818
-0.113369
-0.114583
-0.115236
-0.115228
-0.114416
-0.11273
-0.11019
-0.106897
-0.103108
-0.0992712
-0.0959147
-0.0934485
-0.0921322
-0.0918241
-0.0921755
-0.0928402
-0.0935143
-0.093998
-0.094386
-0.094753
-0.09519
-0.0957841
-0.0965047
-0.0974134
-0.0984798
-0.0996692
-0.100764
-0.101411
-0.101106
-0.0994586
-0.0963824
-0.0922239
-0.08778
-0.0840772
-0.0819543
-0.0818246
-0.0834518
-0.0861942
-0.0892664
-0.09208
-0.0945843
-0.0969762
-0.0996744
-0.103027
-0.106925
-0.110941
-0.114346
-0.116381
-0.11643
-0.11402
-0.108971
-0.101304
-0.0912928
-0.0794109
-0.0663278
-0.0526512
-0.0388804
-0.0253254
-0.0120615
0.000929323
0.0136682
0.0260209
0.0376933
0.0482968
0.0574812
0.0649233
0.0706456
0.0748035
0.0778864
0.0805512
0.0834654
0.087052
0.0913614
0.0960518
0.100403
0.103622
0.105075
0.104592
0.102433
0.099303
0.0959648
0.0930924
0.0909493
0.0895056
0.0883976
0.0872688
0.0857964
0.0838976
0.0815984
0.0789821
0.0761606
0.0731956
0.0701411
0.0671002
0.0642303
0.0617665
0.0598263
0.0584474
0.0574736
0.0564339
0.0547371
0.0517797
0.0471289
0.0406388
0.0326892
0.0239718
0.0155989
0.00871222
0.0042109
0.00238083
0.00289953
0.0047987
0.00694267
0.00837857
0.00861934
0.00781224
0.00645212
0.00513036
0.00410991
0.00325519
0.00215676
0.000347195
-0.00228245
-0.00542878
-0.00868391
-0.0116092
-0.0141818
-0.0166264
-0.0192246
-0.0221279
-0.0250427
-0.0274619
-0.0288198
-0.0289913
-0.0283351
-0.0276501
-0.0277844
-0.029086
-0.0313318
-0.0336119
-0.0347907
-0.0341153
-0.0315184
-0.0276775
-0.0236809
-0.0205772
-0.0190846
-0.0192134
-0.020383
-0.0217978
-0.0225602
-0.0219973
-0.0195688
-0.0152416
-0.00929296
-0.00216374
0.00528173
0.0121713
0.0176077
0.0209992
0.0221355
0.0213869
0.0195223
0.0176088
0.0168272
0.0181146
0.0219776
0.0284128
0.0368796
0.0464518
0.055991
0.0642897
0.0703657
0.0734775
0.0732878
0.0700142
0.0643941
0.0576141
0.0511329
0.0463253
0.0438539
0.0433583
0.0434797
0.0421936
0.0374746
0.0280313
0.0139486
-0.00346917
-0.0219992
-0.039379
-0.0539429
-0.0651685
-0.0734574
-0.079724
-0.0847037
-0.088504
-0.0907035
-0.090504
-0.0873738
-0.0813782
-0.0735247
-0.0654993
-0.0590404
-0.0554763
-0.0552398
-0.0578212
-0.0619745
-0.0662159
-0.0693786
-0.0709294
-0.0709131
-0.0697666
-0.068329
-0.0678048
-0.0699344
-0.0768793
-0.0909758
-0.113856
-0.145205
-0.181383
-0.214944
-0.234908
-0.227949
-0.180643
-0.0826505
0.0696086
0.269812
0.499702
0.72967
0.923177
1.04419
1.06651
0.981776
0.802721
0.560634
0.297249
0.0538048
-0.138933
-0.266316
-0.329908
-0.342939
-0.323832
-0.289947
-0.253963
-0.223002
-0.199751
-0.184
-0.174183
-0.168203
-0.164292
-0.161143
-0.158066
-0.15513
-0.152839
-0.151795
-0.152373
-0.154329
-0.156817
-0.158827
-0.159485
-0.158446
-0.156006
-0.153007
-0.150395
-0.148892
-0.148707
-0.149437
-0.150228
-0.150143
-0.148495
-0.145021
-0.139994
-0.134131
-0.128262
-0.123227
-0.119515
-0.117248
-0.116167
-0.115771
-0.115577
-0.115237
-0.114723
-0.114233
-0.114002
-0.114218
-0.1148
-0.115482
-0.115896
-0.115765
-0.11517
-0.114569
-0.114583
-0.115731
-0.118089
-0.121195
-0.124182
-0.126065
-0.126165
-0.124223
-0.120638
-0.116175
-0.111635
-0.107736
-0.104902
-0.103207
-0.102598
-0.10288
-0.103797
-0.10507
-0.106608
-0.108379
-0.110686
-0.113802
-0.118064
-0.123718
-0.130711
-0.138756
-0.147351
-0.155719
-0.163055
-0.168542
-0.171315
-0.170719
-0.166312
-0.158042
-0.146154
-0.131187
-0.11404
-0.0956708
-0.0770389
-0.0590285
-0.0422181
-0.0269576
-0.013203
-0.000749952
0.010788
0.0217303
0.0323992
0.0428191
0.0528842
0.0623577
0.0708682
0.0781593
0.0840812
0.0885649
0.0919161
0.0944884
0.0967076
0.0989074
0.101344
0.104037
0.10681
0.109393
0.111486
0.112851
0.113323
0.112884
0.111578
0.109534
0.106851
0.103667
0.100186
0.0966138
0.0930661
0.0895343
0.0859614
0.0821851
0.078053
0.0735949
0.0690876
0.064946
0.0615903
0.0593779
0.058308
0.0581497
0.0584164
0.0586604
0.0585714
0.0580392
0.0571477
0.056044
0.054887
0.0537032
0.0523903
0.0507235
0.0485727
0.0458799
0.0427015
0.0391833
0.0355606
0.0321041
0.0289511
0.026164
0.0237505
0.0215413
0.019309
0.0168471
0.0140832
0.0111291
0.00823722
0.00579412
0.00411576
0.00332823
0.00331724
0.00383904
0.0046461
0.00564109
0.00679838
0.00818601
0.00987036
0.0117192
0.0133859
0.0145081
0.0147238
0.0138755
0.0119881
0.00920936
0.00569034
0.00157949
-0.00304045
-0.00804871
-0.0132297
-0.0181905
-0.0224574
-0.0256553
-0.0273716
-0.02759
-0.0264931
-0.0245002
-0.0221056
-0.0198525
-0.0182127
-0.0175078
-0.0177313
-0.0186595
-0.0198688
-0.020619
-0.0201838
-0.0178993
-0.0134228
-0.00680868
0.00142144
0.0103885
0.0190711
0.0266542
0.0327563
0.0374871
0.0413992
0.0452733
0.0497867
0.0553007
0.0615296
0.0678356
0.073309
0.0771144
0.0787091
0.0780275
0.0754293
0.0714925
0.0667659
0.0617764
0.057071
0.0530991
0.0505476
0.0498258
0.0509072
0.0530549
0.0547741
0.0542411
0.0498602
0.0408477
0.0274527
0.0109885
-0.00665474
-0.0234797
-0.0379305
-0.0490335
-0.0564288
-0.0602529
-0.0610547
-0.0596882
-0.0571091
-0.0543432
-0.0522599
-0.0514162
-0.0520318
-0.0539852
-0.0570198
-0.0606949
-0.0647062
-0.0687476
-0.0726658
-0.0763087
-0.0793463
-0.0814088
-0.0820622
-0.0810684
-0.0785511
-0.0751906
-0.0724489
-0.0725583
-0.0780454
-0.0911814
-0.113271
-0.143873
-0.180184
-0.216557
-0.244847
-0.25511
-0.236578
-0.179069
-0.0745254
0.0807787
0.283647
0.521622
0.771398
1.00011
1.17019
1.24776
1.21209
1.06345
0.825311
0.539434
0.255072
0.0156023
-0.152085
-0.242156
-0.267404
-0.251429
-0.218992
-0.188685
-0.169721
-0.16309
-0.164991
-0.17042
-0.175641
-0.178752
-0.17952
-0.178525
-0.176477
-0.174139
-0.172071
-0.170838
-0.170651
-0.1715
-0.173006
-0.174689
-0.176002
-0.176595
-0.176406
-0.175579
-0.174264
-0.172571
-0.170529
-0.167977
-0.16489
-0.161284
-0.157321
-0.153314
-0.149487
-0.145964
-0.142778
-0.13989
-0.137131
-0.134534
-0.132152
-0.130077
-0.128486
-0.127366
-0.126785
-0.126656
-0.126875
-0.127248
-0.127645
-0.127942
-0.128108
-0.128168
-0.128227
-0.128459
-0.128951
-0.129707
-0.130507
-0.131114
-0.131199
-0.130335
-0.128447
-0.125697
-0.122364
-0.11889
-0.115753
-0.113231
-0.111525
-0.110662
-0.110628
-0.11142
-0.112925
-0.115013
-0.117454
-0.11999
-0.122372
-0.124567
-0.126599
-0.128634
-0.130848
-0.13328
-0.135865
-0.13828
-0.140113
-0.140851
-0.139872
-0.136642
-0.130683
-0.121759
-0.109957
-0.0957869
-0.0801948
-0.064466
-0.0498646
-0.0375341
-0.0279651
-0.0210142
-0.0159737
-0.0117575
-0.00733503
-0.00203022
0.00435454
0.0116223
0.019337
0.0271589
0.0349479
0.0428144
0.0510715
0.0597846
0.0688301
0.0778258
0.0861935
0.0934595
0.0993867
0.104036
0.107674
0.11058
0.112949
0.114745
0.115841
0.116177
0.115772
0.114807
0.113618
0.112364
0.111028
0.109494
0.107378
0.104507
0.100876
0.0966988
0.092458
0.0886489
0.0856148
0.0835236
0.0821812
0.0812732
0.080479
0.0795401
0.0783752
0.0770949
0.0758605
0.0748881
0.0742184
0.0738831
0.0736587
0.0732872
0.0724666
0.0709358
0.0685468
0.0653258
0.0614246
0.0570157
0.0523681
0.0475333
0.0425924
0.0375976
0.0326455
0.0279261
0.0236677
0.0201064
0.0174119
0.0155897
0.0144488
0.0136324
0.0127872
0.0115974
0.00996644
0.00799446
0.0059465
0.00418099
0.00292176
0.00225191
0.00200738
0.00188835
0.00154802
0.000763388
-0.000461838
-0.00196951
-0.00354702
-0.00483448
-0.00578956
-0.00640549
-0.00681428
-0.00722796
-0.00778201
-0.00850287
-0.00935928
-0.0103086
-0.0112858
-0.0122936
-0.0133218
-0.0143144
-0.0152885
-0.0160953
-0.0166253
-0.0169001
-0.0168242
-0.0164345
-0.0157975
-0.0150358
-0.0142551
-0.0135249
-0.01284
-0.0120486
-0.0109059
-0.00927407
-0.00705344
-0.00434437
-0.00144594
0.00138607
0.00402496
0.00660853
0.00960346
0.0135499
0.0188766
0.0256559
0.0334597
0.0415004
0.0489563
0.0551554
0.060042
0.0641559
0.0683609
0.073487
0.0799299
0.0873874
0.0950521
0.101757
0.106512
0.108731
0.108394
0.105867
0.101784
0.0968568
0.091799
0.0872946
0.0840594
0.0827228
0.0835036
0.0859527
0.0888313
0.0903853
0.0887974
0.0828212
0.0721793
0.0577071
0.0410871
0.0243132
0.00906675
-0.00361115
-0.013442
-0.0206372
-0.0257825
-0.029349
-0.0317175
-0.0331527
-0.0338616
-0.0340436
-0.0339146
-0.0338637
-0.0342686
-0.0355239
-0.0377059
-0.0407636
-0.0443629
-0.0479659
-0.0509355
-0.0526383
-0.0526164
-0.0508647
-0.0476687
-0.0439035
-0.0411001
-0.0413855
-0.0470821
-0.0603822
-0.0826458
-0.113532
-0.150422
-0.188086
-0.219256
-0.236135
-0.232363
-0.204502
-0.152845
-0.0806086
0.00833458
0.112003
0.231872
0.372235
0.536755
0.723617
0.920943
1.10485
1.24276
1.30149
1.25774
1.10759
0.870325
0.584586
0.298053
0.0541259
-0.119473
-0.215925
-0.247283
-0.23676
-0.209115
-0.182894
-0.16706
-0.162262
-0.164606
-0.169205
-0.172819
-0.174272
-0.1741
-0.173428
-0.173061
-0.17328
-0.174033
-0.174865
-0.175389
-0.175197
-0.174094
-0.172096
-0.169489
-0.166639
-0.163877
-0.161463
-0.159282
-0.157142
-0.154705
-0.15186
-0.148549
-0.144948
-0.141234
-0.137715
-0.134477
-0.131616
-0.129185
-0.127285
-0.125988
-0.125272
-0.12513
-0.125399
-0.125816
-0.126185
-0.12633
-0.126303
-0.126111
-0.125765
-0.125303
-0.124642
-0.123784
-0.122688
-0.121514
-0.120431
-0.119572
-0.118936
-0.118436
-0.117801
-0.1169
-0.115659
-0.114219
-0.112941
-0.112157
-0.112081
-0.11283
-0.114313
-0.116321
-0.118496
-0.120581
-0.122396
-0.12385
-0.125035
-0.126205
-0.127695
-0.129783
-0.132566
-0.135923
-0.139491
-0.142637
-0.144682
-0.145118
-0.143507
-0.139735
-0.133858
-0.12603
-0.116495
-0.105505
-0.0931699
-0.0797026
-0.0653413
-0.0504468
-0.0354658
-0.0208877
-0.00724694
0.00511842
0.0160788
0.0256183
0.0339017
0.0411782
0.0477502
0.0538742
0.0596502
0.0651801
0.0704432
0.0753627
0.0798911
0.0839656
0.0875442
0.0906932
0.093373
0.0956646
0.0976414
0.0994593
0.101302
0.103365
0.105688
0.108191
0.11055
0.112365
0.113233
0.112885
0.111289
0.108661
0.105427
0.102045
0.0988846
0.0961147
0.0938033
0.091926
0.0904217
0.0893508
0.0886451
0.0882489
0.0879937
0.0875265
0.0866008
0.0850004
0.0827434
0.0800495
0.0772683
0.0746613
0.0723028
0.0700746
0.0676909
0.064941
0.0617588
0.0582931
0.0548777
0.0517086
0.0489302
0.0464868
0.0442635
0.0422179
0.0404596
0.0391404
0.0384622
0.0383471
0.0385188
0.0384975
0.0377821
0.0360309
0.0332525
0.0295765
0.0253644
0.021027
0.0168514
0.0129743
0.00944358
0.00617897
0.00306137
-9.33407e-5
-0.00334213
-0.0066553
-0.00997567
-0.013004
-0.0155742
-0.0174377
-0.0184424
-0.0185015
-0.0177258
-0.0162859
-0.0145242
-0.012864
-0.0116742
-0.0111568
-0.0112572
-0.0115873
-0.0117696
-0.011365
-0.0102225
-0.00866431
-0.00727863
-0.00665946
-0.00719013
-0.00888985
-0.0113365
-0.0138467
-0.0158383
-0.0168806
-0.0168618
-0.0159731
-0.0143775
-0.0123521
-0.0101842
-0.00808676
-0.00627591
-0.00499406
-0.00428485
-0.00409161
-0.00405582
-0.00358249
-0.00194838
0.00147384
0.00717412
0.0152596
0.025304
0.0365067
0.0477878
0.0580301
0.0662738
0.0720478
0.0753663
0.0767027
0.0768705
0.0767542
0.0771674
0.0787312
0.0816504
0.0858247
0.0908357
0.095969
0.100502
0.103807
0.105422
0.105248
0.103452
0.100329
0.0962839
0.0917771
0.087307
0.0833894
0.0806947
0.0797773
0.0807603
0.0829749
0.0851099
0.0854411
0.0822749
0.0747069
0.0628107
0.0476744
0.0309753
0.0143862
-0.000735422
-0.0136345
-0.0240446
-0.0319437
-0.0375596
-0.0411366
-0.0431102
-0.0439686
-0.0442722
-0.0442418
-0.0440041
-0.0434639
-0.0426446
-0.0417931
-0.041391
-0.0420094
-0.0439886
-0.0470226
-0.0502277
-0.0524034
-0.0524713
-0.0501532
-0.0462683
-0.0429671
-0.0431239
-0.0497364
-0.0651483
-0.0902777
-0.124294
-0.164465
-0.20561
-0.240535
-0.26022
-0.254452
-0.212533
-0.125169
0.0130878
0.200491
0.42536
0.664775
0.88618
1.05268
1.13146
1.103
0.96798
0.748608
0.483898
0.219345
-0.0049212
-0.16349
-0.250033
-0.274988
-0.258944
-0.224547
-0.189677
-0.164126
-0.15037
-0.146054
-0.147087
-0.149836
-0.152235
-0.153634
-0.154237
-0.154292
-0.153916
-0.153134
-0.152103
-0.151037
-0.15026
-0.150091
-0.150674
-0.151843
-0.153191
-0.154067
-0.153899
-0.152224
-0.148946
-0.144385
-0.139125
-0.133914
-0.129394
-0.126053
-0.123882
-0.122618
-0.121728
-0.120631
-0.11901
-0.116858
-0.11445
-0.112273
-0.110777
-0.110232
-0.110461
-0.111159
-0.11194
-0.112371
-0.112305
-0.111733
-0.110847
-0.109921
-0.109161
-0.108912
-0.109349
-0.110438
-0.111995
-0.113628
-0.114896
-0.115439
-0.115104
-0.113888
-0.111937
-0.109386
-0.106217
-0.102342
-0.097659
-0.0923524
-0.0868461
-0.0817838
-0.077809
-0.075353
-0.0744293
-0.0747531
-0.0759002
-0.077556
-0.0796915
-0.0826781
-0.087063
-0.0931765
-0.100972
-0.1099
-0.118874
-0.126718
-0.132363
-0.134944
-0.133985
-0.129333
-0.121023
-0.109438
-0.095157
-0.0791701
-0.0627138
-0.0471881
-0.0337524
-0.0230737
-0.0152967
-0.00990169
-0.00597726
-0.00253747
0.00137811
0.0064226
0.0129594
0.0211091
0.0307431
0.0413952
0.0524441
0.0631657
0.072732
0.0804528
0.0859347
0.0890036
0.0898961
0.089145
0.0874739
0.0857758
0.0848811
0.085346
0.0871938
0.0901239
0.0934162
0.0961842
0.0977762
0.0979046
0.0968028
0.0950052
0.0931555
0.0918166
0.0912066
0.0911421
0.0911414
0.0906166
0.0890428
0.0862285
0.0823178
0.0777786
0.0731649
0.0689973
0.0654624
0.0625373
0.0600113
0.0576435
0.0551985
0.0526606
0.0502437
0.0483418
0.0474587
0.0483074
0.051498
0.0573758
0.0657041
0.0756457
0.0858173
0.094623
0.100672
0.103273
0.102541
0.0993908
0.0953157
0.0917728
0.089934
0.0903577
0.0927169
0.096009
0.0988003
0.0996791
0.097714
0.0926995
0.0851138
0.0759163
0.0660539
0.0562225
0.046566
0.0369186
0.0270697
0.0170562
0.00727673
-0.00171538
-0.00952279
-0.0161212
-0.021808
-0.0271181
-0.0323756
-0.0376717
-0.0427361
-0.0472065
-0.0508824
-0.053922
-0.0567258
-0.0597355
-0.0631447
-0.0667716
-0.0700825
-0.0724343
-0.0733285
-0.0727399
-0.0711033
-0.0692479
-0.0679775
-0.0678984
-0.0691283
-0.0712745
-0.0735206
-0.0749811
-0.0749439
-0.0733117
-0.0709583
-0.0696728
-0.0721171
-0.081105
-0.0989489
-0.126266
-0.161317
-0.199345
-0.232773
-0.25207
-0.246917
-0.207472
-0.125799
0.00244584
0.175952
0.385602
0.613237
0.83176
1.00846
1.1115
1.11813
1.02208
0.836981
0.594339
0.33555
0.101128
-0.0793253
-0.193024
-0.244024
-0.248305
-0.226295
-0.196135
-0.169546
-0.151407
-0.141568
-0.137542
-0.136678
-0.137105
-0.138072
-0.139335
-0.140813
-0.14202
-0.142551
-0.142028
-0.140208
-0.137268
-0.133661
-0.13005
-0.127091
-0.12516
-0.124227
-0.123918
-0.123586
-0.122723
-0.121137
-0.119092
-0.117061
-0.115527
-0.114777
-0.114719
-0.115044
-0.115503
-0.115947
-0.116683
-0.118055
-0.120314
-0.123281
-0.126522
-0.129189
-0.130416
-0.12964
-0.126602
-0.121612
-0.115436
-0.109042
-0.103433
-0.0993888
-0.0973058
-0.097115
-0.0983028
-0.100063
-0.101474
-0.1018
-0.100675
-0.0981017
-0.0945226
-0.0907751
-0.0877099
-0.0861235
-0.0861492
-0.087421
-0.08911
-0.090222
-0.0901398
-0.088838
-0.0869767
-0.0856375
-0.0859537
-0.088665
-0.0937892
-0.100707
-0.108431
-0.115943
-0.122497
-0.127777
-0.131919
-0.135337
-0.138339
-0.141015
-0.14309
-0.144049
-0.143291
-0.140248
-0.134564
-0.125927
-0.114421
-0.100371
-0.0845833
-0.0682623
-0.0527889
-0.039495
-0.0291494
-0.0216312
-0.0160568
-0.011017
-0.00517929
0.00215707
0.0109488
0.0206192
0.0303856
0.03965
0.0484001
0.0569453
0.0656762
0.0747055
0.0837722
0.0922721
0.0995357
0.10507
0.108738
0.110643
0.111068
0.110389
0.109022
0.10725
0.105408
0.103701
0.102249
0.100929
0.099635
0.098197
0.096479
0.0945676
0.0926565
0.0908855
0.0893836
0.0882272
0.0872741
0.0864442
0.0855804
0.0845211
0.0831306
0.0813544
0.0791682
0.0767143
0.0742163
0.0719283
0.070052
0.068598
0.067345
0.0660027
0.06423
0.0618408
0.0588555
0.0555856
0.0524018
0.0496587
0.0474634
0.0457122
0.0440737
0.0421933
0.0397787
0.0367942
0.0335618
0.0305522
0.0283601
0.027444
0.0280211
0.0298537
0.0324617
0.0350969
0.0370826
0.038003
0.0377729
0.036672
0.0352147
0.0339289
0.0331179
0.0329069
0.0331922
0.0336677
0.033868
0.0332765
0.0315625
0.0284067
0.0239228
0.0184831
0.0128463
0.00789854
0.00446429
0.00302301
0.00354443
0.00556272
0.0083591
0.0112328
0.0136819
0.015452
0.0164918
0.0167498
0.0161449
0.0146173
0.0121248
0.00885692
0.00522836
0.00173047
-0.00119261
-0.00332876
-0.0046546
-0.00536118
-0.00576342
-0.00600591
-0.006201
-0.00632955
-0.00631763
-0.0061334
-0.00580551
-0.005449
-0.00525258
-0.0053877
-0.00588105
-0.00666488
-0.00763376
-0.00852268
-0.00922447
-0.00972247
-0.0100998
-0.0105487
-0.0111783
-0.0120601
-0.0130726
-0.0140698
-0.0147449
-0.0149584
-0.0144887
-0.0133123
-0.0114224
-0.00887528
-0.00574912
-0.00226458
0.00135258
0.00478543
0.00764138
0.00957422
0.0104768
0.0105301
0.0100853
0.00965032
0.00976196
0.0106038
0.0121468
0.0139749
0.0155573
0.0163709
0.0162025
0.0151738
0.013632
0.0121865
0.0112408
0.0110831
0.0115185
0.0121772
0.0125794
0.0123832
0.0114826
0.0101828
0.00881651
0.00776684
0.00725761
0.00732632
0.0078684
0.00887047
0.0102903
0.0124379
0.0156748
0.0204906
0.0270962
0.0354094
0.0449273
0.0549196
0.0645112
0.0729957
0.0800651
0.0858385
0.0907179
0.0952196
0.0996428
0.103937
0.107606
0.11005
0.11072
0.109373
0.106301
0.102077
0.0974058
0.0928911
0.0888592
0.0853251
0.0824098
0.0803505
0.0797499
0.0810642
0.0843239
0.0887224
0.0926347
0.0939837
0.0910052
0.082868
0.0700204
0.0540013
0.0368962
0.0206138
0.00637161
-0.00544351
-0.0149805
-0.0226467
-0.0287063
-0.0332944
-0.0364758
-0.0382955
-0.0389496
-0.0386916
-0.0378402
-0.0365642
-0.0349821
-0.033137
-0.0311903
-0.0293509
-0.0279693
-0.027309
-0.0276118
-0.0287207
-0.0303809
-0.0321243
-0.0335436
-0.0344579
-0.0351298
-0.0364894
-0.0401837
-0.0482292
-0.0626413
-0.0848381
-0.114899
-0.150619
-0.18687
-0.215531
-0.22605
-0.206537
-0.145396
-0.0335688
0.132497
0.347842
0.59669
0.851697
1.07657
1.23221
1.28623
1.2224
1.04743
0.791043
0.499051
0.221165
-0.00226084
-0.149634
-0.220787
-0.232659
-0.210472
-0.178256
-0.152332
-0.139343
-0.138296
-0.144452
-0.152813
-0.160007
-0.164803
-0.167522
-0.168948
-0.169582
-0.169641
-0.168907
-0.16726
-0.164656
-0.161263
-0.157411
-0.153569
-0.150177
-0.147457
-0.145386
-0.1437
-0.142001
-0.139949
-0.137367
-0.134399
-0.131407
-0.128874
-0.127173
-0.126488
-0.126739
-0.127536
-0.128529
-0.129282
-0.129644
-0.129555
-0.129034
-0.128034
-0.126573
-0.124567
-0.12203
-0.11914
-0.116165
-0.113472
-0.111342
-0.109872
-0.108959
-0.108396
-0.10799
-0.107614
-0.10727
-0.106997
-0.106849
-0.106761
-0.106671
-0.106512
-0.106271
-0.106075
-0.106004
-0.106194
-0.106643
-0.107219
-0.107841
-0.108334
-0.108654
-0.108837
-0.109019
-0.109364
-0.110138
-0.11145
-0.113383
-0.115969
-0.119071
-0.122545
-0.126193
-0.129761
-0.133011
-0.135707
-0.137631
-0.138503
-0.137944
-0.13544
-0.130334
-0.122009
-0.110093
-0.0946909
-0.0764857
-0.0566261
-0.0364314
-0.0171113
0.00063389
0.0166393
0.0312051
0.0448514
0.0580628
0.0708732
0.0831125
0.0944448
0.104431
0.112923
0.120009
0.125961
0.13107
0.135509
0.139251
0.142043
0.143727
0.144226
0.143646
0.142306
0.140471
0.138266
0.135748
0.132723
0.129108
0.124951
0.120483
0.116096
0.112201
0.10903
0.106565
0.104789
0.103567
0.10281
0.102496
0.102455
0.102446
0.102073
0.100907
0.0987825
0.095778
0.0923683
0.0890856
0.0863148
0.0841278
0.0823025
0.0804318
0.0782272
0.0755456
0.0725251
0.0693368
0.0661072
0.0628806
0.0594924
0.0558384
0.0518613
0.0477247
0.0436666
0.039902
0.0366003
0.0337709
0.0313809
0.0292144
0.0270845
0.0248768
0.0224492
0.0198387
0.017137
0.0144572
0.0120651
0.0101293
0.00865953
0.00755243
0.00641809
0.00480117
0.00229409
-0.00113597
-0.00518266
-0.00934533
-0.0129081
-0.0153739
-0.0165816
-0.016791
-0.01659
-0.0165275
-0.0169641
-0.0179391
-0.0191488
-0.0201643
-0.0206335
-0.0205343
-0.02009
-0.0197588
-0.0200202
-0.0211099
-0.0230154
-0.0253363
-0.0275374
-0.0291052
-0.029637
-0.0289903
-0.0273229
-0.0249866
-0.0225258
-0.0203668
-0.0188087
-0.0179431
-0.0176552
-0.0176582
-0.0175707
-0.0169814
-0.0154767
-0.0126126
-0.0081277
-0.00188476
0.00586071
0.0145442
0.0233108
0.0313364
0.0379911
0.0431571
0.0471975
0.0507857
0.0547131
0.059469
0.0650983
0.0710933
0.0767417
0.0811611
0.0837645
0.0842265
0.0825957
0.0792369
0.0746621
0.0695065
0.064629
0.0609935
0.0594418
0.060424
0.0635963
0.0677103
0.0707954
0.070793
0.0661456
0.0562854
0.041828
0.0243945
0.00607194
-0.0110803
-0.0255057
-0.0363367
-0.0433533
-0.0468657
-0.0476479
-0.0467388
-0.0451925
-0.043926
-0.0434803
-0.04401
-0.0452679
-0.0468648
-0.0485208
-0.0500715
-0.0514646
-0.0527204
-0.0538173
-0.0546357
-0.0548792
-0.0544856
-0.0536109
-0.0527225
-0.0525616
-0.054214
-0.0590376
-0.0685712
-0.0842734
-0.107184
-0.137397
-0.173293
-0.210604
-0.242074
-0.257848
-0.246077
-0.194468
-0.0928114
0.0638829
0.271725
0.515365
0.767075
0.989775
1.14382
1.19699
1.13424
0.963622
0.715948
0.43699
0.174953
-0.0324187
-0.166472
-0.229182
-0.23805
-0.217244
-0.188612
-0.166077
-0.154451
-0.152129
-0.154889
-0.158822
-0.1619
-0.16386
-0.165186
-0.166395
-0.167389
-0.167852
-0.167306
-0.165667
-0.163095
-0.160034
-0.157017
-0.154432
-0.152604
-0.151594
-0.151341
-0.151642
-0.152266
-0.152959
-0.153527
-0.15378
-0.153669
-0.153257
-0.152595
-0.151687
-0.150446
-0.148683
-0.146181
-0.142722
-0.138355
-0.133172
-0.127514
-0.121825
-0.116561
-0.112164
-0.109034
-0.107214
-0.106609
-0.106905
-0.107533
-0.108028
-0.108078
-0.107688
-0.107097
-0.106607
-0.10643
-0.106583
-0.106861
-0.106858
-0.106338
-0.10515
-0.103389
-0.101316
-0.0991625
-0.0971938
-0.0953946
-0.0938264
-0.0924557
-0.0913062
-0.0906418
-0.090611
-0.0913299
-0.0929192
-0.0952338
-0.0980721
-0.101192
-0.104337
-0.107379
-0.11027
-0.113047
-0.115753
-0.118456
-0.121111
-0.123423
-0.124923
-0.124724
-0.121855
-0.115319
-0.104501
-0.0893983
-0.0707119
-0.0498487
-0.0285739
-0.00869779
0.00853781
0.0226115
0.0336898
0.0424738
0.0498938
0.0567364
0.0635755
0.0706378
0.0777524
0.0846003
0.0907388
0.0958313
0.0995726
0.101933
0.103108
0.103422
0.103361
0.103249
0.103309
0.103513
0.103717
0.10373
0.103403
0.102663
0.101513
0.100116
0.0984788
0.0966768
0.0945863
0.0921852
0.0893868
0.0862383
0.0828014
0.0791506
0.0754188
0.0716754
0.0680012
0.0645282
0.0614096
0.0588526
0.0569774
0.0558699
0.0553804
0.0553272
0.055298
0.0550278
0.0542543
0.0528748
0.0509787
0.0486576
0.0461005
0.0432851
0.040219
0.0367137
0.0328306
0.0286199
0.0243707
0.0204101
0.0170102
0.0142233
0.0118465
0.00958178
0.00711592
0.0042342
0.000958452
-0.00250022
-0.00578237
-0.0085088
-0.0103074
-0.0110593
-0.0106781
-0.00935489
-0.00739143
-0.00522144
-0.00328476
-0.00188573
-0.00124767
-0.00126391
-0.00176908
-0.00238503
-0.00283456
-0.00294975
-0.00267495
-0.00214644
-0.00159591
-0.00127671
-0.00139101
-0.00211815
-0.00344039
-0.00530594
-0.00751251
-0.00978438
-0.0117984
-0.0132745
-0.0140758
-0.0141534
-0.0136561
-0.01286
-0.012023
-0.0112369
-0.0106019
-0.0100436
-0.00945015
-0.00872898
-0.00775311
-0.00637625
-0.00441212
-0.00156573
0.00250688
0.00815826
0.0155236
0.0243978
0.0342677
0.0443743
0.0538297
0.0619883
0.0685156
0.0735873
0.0777372
0.0816285
0.0857152
0.0900481
0.0940269
0.0968372
0.0975057
0.0954694
0.0908252
0.0843079
0.0772299
0.0710245
0.0669733
0.0659357
0.0682058
0.0733651
0.0802818
0.0871189
0.0917109
0.0920796
0.086908
0.0759695
0.060226
0.0415565
0.0223094
0.00454527
-0.0103327
-0.0216941
-0.0295273
-0.034377
-0.0369134
-0.0379411
-0.0380874
-0.0379411
-0.0378556
-0.0379752
-0.0382939
-0.0387232
-0.0391337
-0.0395026
-0.0398258
-0.040072
-0.0402449
-0.0402167
-0.0398111
-0.038863
-0.0373588
-0.0354731
-0.0336302
-0.0325432
-0.0331371
-0.0365915
-0.0441174
-0.0569484
-0.0760379
-0.101812
-0.133646
-0.169307
-0.204219
-0.231295
-0.240803
-0.220944
-0.159549
-0.0469333
0.120241
0.334784
0.576279
0.811733
1.00098
1.106
1.10193
0.985691
0.77849
0.520746
0.26079
0.0413108
-0.111525
-0.192313
-0.213595
-0.197785
-0.168105
-0.141359
-0.125364
-0.120241
-0.122016
-0.125924
-0.128668
-0.129079
-0.127521
-0.124915
-0.12226
-0.120123
-0.118718
-0.118045
-0.118036
-0.118616
-0.11971
-0.121134
-0.122629
-0.123752
-0.124028
-0.12311
-0.120928
-0.117708
-0.113948
-0.110258
-0.106996
-0.104292
-0.101919
-0.0994225
-0.0963876
-0.0926764
-0.0884942
-0.0843619
-0.0808777
-0.0786626
-0.077863
-0.0781628
-0.0789409
-0.0794003
-0.0789941
-0.0776856
-0.0758476
-0.0742353
-0.0735399
-0.0742381
-0.0763578
-0.0795496
-0.0832273
-0.0868745
-0.0901181
-0.0927935
-0.0949741
-0.0966935
-0.0979494
-0.098597
-0.0984996
-0.0974952
-0.0955643
-0.0927698
-0.089406
-0.0857749
-0.082226
-0.0791619
-0.0768734
-0.0755958
-0.0754929
-0.0764819
-0.0783404
-0.0807776
-0.0834003
-0.0859378
-0.0883574
-0.0908005
-0.0936424
-0.097242
-0.101766
-0.107115
-0.1127
-0.117686
-0.121021
-0.121697
-0.11887
-0.112166
-0.101655
-0.0879599
-0.0720859
-0.0553005
-0.0388013
-0.0234715
-0.00976473
0.00237832
0.0132875
0.0233334
0.0326607
0.0412752
0.0489845
0.0556947
0.061466
0.0664174
0.070695
0.0743061
0.0770432
0.0786376
0.078902
0.0778559
0.0758851
0.0735464
0.0713903
0.0699183
0.0693022
0.0694729
0.0701825
0.0710816
0.0718348
0.0722614
0.0723416
0.0721364
0.0716629
0.0709136
0.0697067
0.0677562
0.0648149
0.0607731
0.0558809
0.0506688
0.0459312
0.042444
0.0406708
0.0405561
0.041528
0.0427102
0.0431926
0.0422196
0.0395317
0.0352363
0.0298457
0.0240173
0.0183633
0.0133915
0.00946583
0.00662813
0.00473096
0.00339509
0.00220181
0.000627228
-0.00157505
-0.00435156
-0.00742794
-0.0103118
-0.0125767
-0.0138915
-0.0142873
-0.0139537
-0.0133299
-0.01276
-0.0125162
-0.0125254
-0.0127503
-0.0129992
-0.013214
-0.0135671
-0.014354
-0.0158445
-0.0182602
-0.0215895
-0.0257203
-0.0303007
-0.0348218
-0.0386978
-0.0413603
-0.0422487
-0.0410674
-0.0378563
-0.033048
-0.0273307
-0.0215346
-0.0164649
-0.0125589
-0.0101012
-0.00902755
-0.00912812
-0.0101136
-0.0118153
-0.0139378
-0.0162867
-0.0185693
-0.0203376
-0.0210149
-0.020139
-0.0173814
-0.012793
-0.00686464
-0.000412996
0.00569452
0.0108509
0.0151843
0.0194306
0.0247094
0.0320297
0.0417459
0.0531827
0.0647913
0.0746679
0.0811138
0.0833082
0.0814758
0.0766006
0.0700117
0.062871
0.055839
0.0493567
0.0437796
0.0396706
0.0377261
0.0384918
0.0418152
0.0466538
0.0510275
0.0526255
0.0494147
0.0404161
0.0259461
0.0077151
-0.0116991
-0.0295802
-0.0437103
-0.0529067
-0.0571318
-0.0572514
-0.0547753
-0.051342
-0.0482626
-0.0462276
-0.0452535
-0.0449521
-0.044704
-0.0442406
-0.0436339
-0.043352
-0.0440687
-0.0462287
-0.0497565
-0.0540587
-0.0580545
-0.0606854
-0.0613442
-0.0603858
-0.0592914
-0.0605329
-0.0669109
-0.0807857
-0.10331
-0.133535
-0.167983
-0.200552
-0.223039
-0.225925
-0.199148
-0.133306
-0.0216717
0.137248
0.33682
0.560105
0.779704
0.96118
1.07017
1.08157
0.987704
0.802351
0.558264
0.298828
0.0663391
-0.108954
-0.21493
-0.257474
-0.254929
-0.229678
-0.200634
-0.178948
-0.167533
-0.163944
-0.163609
-0.162683
-0.159661
-0.155255
-0.151303
-0.14937
-0.150054
-0.152739
-0.156131
-0.158859
-0.159852
-0.158889
-0.156375
-0.153116
-0.149752
-0.146628
-0.143664
-0.140548
-0.137045
-0.13315
-0.129055
-0.125288
-0.122327
-0.120577
-0.120239
-0.121183
-0.123082
-0.125572
-0.128158
-0.130522
-0.132398
-0.133464
-0.133363
-0.131913
-0.12893
-0.124435
-0.118851
-0.112773
-0.106971
-0.102137
-0.0988053
-0.0970932
-0.0967939
-0.0973526
-0.0980811
-0.0983749
-0.0978306
-0.0962902
-0.0940282
-0.0914457
-0.0890603
-0.0873085
-0.08631
-0.0859743
-0.0860723
-0.0864098
-0.0869503
-0.0879361
-0.0897512
-0.0925335
-0.0962184
-0.100145
-0.103358
-0.104942
-0.104266
-0.101419
-0.0971626
-0.0927225
-0.0896118
-0.0891278
-0.0920729
-0.0984726
-0.107577
-0.117912
-0.127626
-0.134966
-0.138702
-0.138331
-0.134301
-0.127514
-0.119137
-0.110063
-0.100684
-0.0909846
-0.0807311
-0.0696185
-0.0575622
-0.0448356
-0.0319226
-0.0193296
-0.00752591
0.00330479
0.0132402
0.0225726
0.0317176
0.0409983
0.0505232
0.0602391
0.0698854
0.0791074
0.0876427
0.0953013
0.102083
0.108039
0.113306
0.117941
0.122001
0.1255
0.128328
0.13038
0.131541
0.131653
0.130757
0.129008
0.126764
0.124477
0.122502
0.120931
0.119593
0.117882
0.115124
0.110808
0.104862
0.0977219
0.0901982
0.0832934
0.0777892
0.0741147
0.0722044
0.0715777
0.0715667
0.0715812
0.0712181
0.0703416
0.0690986
0.067674
0.0662569
0.0648944
0.0634881
0.0618449
0.0597461
0.0569556
0.0534226
0.0491267
0.0441557
0.0387117
0.0331647
0.0279125
0.0235098
0.0203764
0.0187856
0.0187136
0.0198462
0.0216701
0.0236041
0.0252954
0.0266432
0.0277133
0.0286667
0.0295681
0.0302731
0.0304695
0.0298934
0.0284576
0.0263258
0.0238986
0.021601
0.019731
0.0182236
0.0168544
0.0152709
0.0132354
0.0107849
0.00823313
0.00599605
0.00445568
0.00386892
0.00414172
0.00505533
0.00619645
0.00728404
0.0080893
0.00846034
0.00834403
0.00771424
0.00665036
0.00538541
0.00437686
0.00430572
0.00585629
0.0095012
0.0152037
0.0224142
0.0301434
0.0372859
0.0430482
0.0471865
0.0501203
0.0526672
0.0557137
0.059903
0.0654107
0.0718671
0.0785241
0.0844061
0.0886972
0.0907396
0.0903814
0.0879821
0.0843023
0.0803845
0.0771324
0.0750502
0.0741321
0.07392
0.0738903
0.0738051
0.0739248
0.0746272
0.0759713
0.077473
0.0779213
0.075623
0.0691979
0.0579961
0.0424391
0.0238863
0.00427136
-0.0145325
-0.0310033
-0.0441855
-0.0537183
-0.0596399
-0.0623975
-0.0627319
-0.0614617
-0.059453
-0.0573676
-0.0556325
-0.0543688
-0.0535541
-0.0530483
-0.052673
-0.0523375
-0.0518964
-0.0512357
-0.050316
-0.0492769
-0.0483672
-0.0483652
-0.0506576
-0.0570765
-0.069559
-0.0897974
-0.118286
-0.153553
-0.19133
-0.224311
-0.242685
-0.234887
-0.189113
-0.0954707
0.0512642
0.248478
0.483136
0.73063
0.956728
1.12339
1.19743
1.15971
1.01186
0.777408
0.496406
0.215237
-0.0252007
-0.198673
-0.297524
-0.330674
-0.317512
-0.280232
-0.23745
-0.20102
-0.17591
-0.161997
-0.156314
-0.155287
-0.156019
-0.156759
-0.15678
-0.155872
-0.154127
-0.151711
-0.148725
-0.145415
-0.142117
-0.139055
-0.136514
-0.134632
-0.133277
-0.132173
-0.131015
-0.129562
-0.127717
-0.125597
-0.123431
-0.121502
-0.12019
-0.119754
-0.120274
-0.12165
-0.123466
-0.12511
-0.12589
-0.12524
-0.122868
-0.118922
-0.113851
-0.10835
-0.103078
-0.0983545
-0.0942543
-0.0905665
-0.0869726
-0.0832219
-0.0793627
-0.0756931
-0.0727014
-0.0708767
-0.0705896
-0.0718612
-0.0744374
-0.0777557
-0.0811977
-0.0841414
-0.0862221
-0.0872691
-0.0874893
-0.0872252
-0.0868835
-0.0868968
-0.0875204
-0.0887893
-0.0906438
-0.0927071
-0.094598
-0.0959787
-0.0965995
-0.0965234
-0.0959823
-0.0954372
-0.0953976
-0.0962996
-0.098268
-0.101267
-0.104975
-0.108956
-0.112739
-0.115853
-0.117749
-0.117889
-0.115738
-0.110889
-0.103167
-0.0927898
-0.0804211
-0.0668617
-0.0531172
-0.0399156
-0.0276152
-0.0163674
-0.00599138
0.00372029
0.0130223
0.0221904
0.0314753
0.0410654
0.05116
0.0617484
0.0725053
0.0828799
0.0921234
0.099489
0.10456
0.107341
0.108338
0.108422
0.108588
0.109501
0.111386
0.113937
0.116593
0.118655
0.119801
0.120007
0.119523
0.118718
0.117767
0.116695
0.115278
0.113229
0.110424
0.106961
0.103091
0.0992325
0.0957579
0.0928467
0.090591
0.0889229
0.0876496
0.0866389
0.0857688
0.0849507
0.0841034
0.0831978
0.0821911
0.0810909
0.0799023
0.0786142
0.077231
0.07567
0.0737993
0.0714437
0.0685634
0.0651363
0.061333
0.0573705
0.0534954
0.0499501
0.0467818
0.0439455
0.041298
0.0386872
0.0358557
0.0327878
0.0296006
0.0264712
0.0236806
0.0215367
0.0202587
0.019875
0.0202309
0.0209807
0.021667
0.0219072
0.0214729
0.0203089
0.0185077
0.0163049
0.0138756
0.0114001
0.00897054
0.00672735
0.00468906
0.00280501
0.000986556
-0.0009733
-0.00340286
-0.00653744
-0.0103682
-0.0147541
-0.0192139
-0.0231949
-0.0261285
-0.0276717
-0.0277849
-0.0267501
-0.0249594
-0.0229358
-0.0210043
-0.0193084
-0.0178421
-0.0164741
-0.0150955
-0.0137161
-0.0124399
-0.0113368
-0.010474
-0.00983989
-0.00933852
-0.00886026
-0.0082291
-0.00727609
-0.00566744
-0.00306171
0.000801945
0.00610606
0.0126411
0.0199936
0.0275071
0.0345278
0.0406476
0.0458834
0.0506034
0.0554826
0.061081
0.0676867
0.0751331
0.0827522
0.08957
0.0945885
0.0970437
0.0965091
0.0932127
0.0879345
0.0818166
0.0762017
0.0720739
0.0698629
0.0691953
0.0691464
0.0687278
0.0673726
0.0653654
0.0635061
0.0627476
0.0634407
0.0648941
0.0656198
0.0636906
0.0576426
0.047125
0.0329278
0.0167294
0.000569222
-0.0138351
-0.0254204
-0.0337688
-0.0389323
-0.0414029
-0.0418255
-0.040998
-0.0399005
-0.0393706
-0.0400295
-0.0421955
-0.0457305
-0.0501158
-0.05473
-0.0590167
-0.0625514
-0.0651613
-0.0668938
-0.0676527
-0.0675417
-0.0665187
-0.0647016
-0.0625288
-0.0607377
-0.0605289
-0.0634935
-0.0712147
-0.0850938
-0.105932
-0.133688
-0.166984
-0.202881
-0.236916
-0.263522
-0.276702
-0.270975
-0.241957
-0.186498
-0.1021
0.0136831
0.162684
0.344334
0.552813
0.774019
0.98423
1.15249
1.24676
1.24305
1.13375
0.932151
0.670615
0.392602
0.14104
-0.0524852
-0.174371
-0.229318
-0.235009
-0.21422
-0.186929
-0.165725
-0.155173
-0.153983
-0.158222
-0.163963
-0.168733
-0.171635
-0.172845
-0.172734
-0.171633
-0.16966
-0.167006
-0.163861
-0.160455
-0.157178
-0.154319
-0.152095
-0.150615
-0.149797
-0.14938
-0.1491
-0.148643
-0.147681
-0.146078
-0.143759
-0.140859
-0.13771
-0.134728
-0.132373
-0.131022
-0.130718
-0.13128
-0.132255
-0.13297
-0.132868
-0.131677
-0.129456
-0.12656
-0.123557
-0.120973
-0.119111
-0.117962
-0.117265
-0.116594
-0.11567
-0.114443
-0.113041
-0.111686
-0.110596
-0.109781
-0.109123
-0.108453
-0.107671
-0.106927
-0.106527
-0.106793
-0.108058
-0.110297
-0.113245
-0.116427
-0.119262
-0.121172
-0.121792
-0.12108
-0.119243
-0.116771
-0.11438
-0.112684
-0.112219
-0.113233
-0.115688
-0.119274
-0.123384
-0.12746
-0.130831
-0.132986
-0.133466
-0.131997
-0.128361
-0.12246
-0.11438
-0.104325
-0.0926543
-0.0799303
-0.0667765
-0.0539343
-0.0420701
-0.0317219
-0.0231773
-0.0164304
-0.0111509
-0.00693601
-0.00321459
0.000396315
0.00420112
0.00824347
0.012524
0.0169895
0.0214856
0.0260701
0.0306941
0.0354868
0.0405621
0.0461621
0.0524739
0.0595792
0.067421
0.0756736
0.0838851
0.091619
0.0983791
0.103939
0.108231
0.111365
0.1135
0.114971
0.115941
0.116597
0.116927
0.116915
0.116486
0.115546
0.114071
0.112108
0.109917
0.107641
0.105584
0.10389
0.10264
0.101867
0.101502
0.101469
0.101554
0.101583
0.101242
0.100197
0.0982237
0.0952655
0.0915241
0.0873235
0.0831256
0.079203
0.0755797
0.0719595
0.0680603
0.0635621
0.0583277
0.0526298
0.0468905
0.0416543
0.0373637
0.0343475
0.0325964
0.0319144
0.0319207
0.0320538
0.0318354
0.0308451
0.0290545
0.0266094
0.0239335
0.0215747
0.0200051
0.0194484
0.0196923
0.0203918
0.0209997
0.0210547
0.0203434
0.0188736
0.0167518
0.0141346
0.0111606
0.00788739
0.0043473
0.000596157
-0.0032802
-0.00711573
-0.0108391
-0.0143652
-0.0175695
-0.0203519
-0.0225534
-0.0239147
-0.0243487
-0.023882
-0.0226093
-0.0208814
-0.0190137
-0.0173139
-0.0159008
-0.0149115
-0.014303
-0.013983
-0.0139303
-0.0140154
-0.0142446
-0.0145794
-0.0150163
-0.0155917
-0.0163782
-0.0174394
-0.0187835
-0.020406
-0.0221612
-0.02385
-0.0253282
-0.02644
-0.0271462
-0.0274596
-0.0272821
-0.0263697
-0.0243226
-0.0205156
-0.0144461
-0.00583328
0.00505311
0.0174095
0.029936
0.0412391
0.0502433
0.0563764
0.0599945
0.061968
0.0635433
0.0658135
0.0694565
0.0746034
0.0808151
0.0872824
0.0930686
0.0973305
0.0994816
0.0992928
0.0969544
0.092737
0.0871303
0.0807062
0.0741057
0.0680117
0.0633374
0.0609467
0.0615391
0.0651056
0.0706587
0.0762864
0.0795577
0.078374
0.0713715
0.0586292
0.041441
0.021921
0.00245648
-0.0149146
-0.0290069
-0.0393595
-0.0462529
-0.0503568
-0.0526
-0.0539031
-0.0552108
-0.0570198
-0.059508
-0.0624339
-0.0653465
-0.0677072
-0.0690646
-0.0692404
-0.0684144
-0.0668699
-0.0649767
-0.0629575
-0.0608464
-0.0587393
-0.0567438
-0.0551924
-0.0547316
-0.0563623
-0.0613942
-0.0713038
-0.0873336
-0.110273
-0.139759
-0.173903
-0.20851
-0.236999
-0.250764
-0.239753
-0.193524
-0.10303
0.0368193
0.22406
0.446726
0.681428
0.895071
1.05038
1.11507
1.07148
0.923402
0.696915
0.434029
0.181187
-0.0234669
-0.159131
-0.224919
-0.235897
-0.214773
-0.183359
-0.15661
-0.140806
-0.135581
-0.137255
-0.141726
-0.146175
-0.149481
-0.151654
-0.153216
-0.154612
-0.156105
-0.157746
-0.159418
-0.160802
-0.161528
-0.161241
-0.159695
-0.156811
-0.152659
-0.147492
-0.141659
-0.135587
-0.129707
-0.124395
-0.119945
-0.11636
-0.113569
-0.111397
-0.109644
-0.10827
-0.107312
-0.10683
-0.106752
-0.106862
-0.106709
-0.105832
-0.103974
-0.101246
-0.0980884
-0.09527
-0.0933394
-0.0926391
-0.09307
-0.0941589
-0.0953417
-0.0961592
-0.0963832
-0.0960185
-0.0953211
-0.0944929
-0.0935911
-0.0925681
-0.0912852
-0.089667
-0.0877514
-0.0857981
-0.0841881
-0.083269
-0.0832757
-0.0841309
-0.0854879
-0.0868594
-0.0877075
-0.0877139
-0.0867917
-0.0850345
-0.0828581
-0.0806016
-0.0786315
-0.0771687
-0.0763436
-0.076197
-0.0768943
-0.0786754
-0.0816641
-0.0858868
-0.0910985
-0.0967212
-0.101816
-0.105319
-0.106274
-0.103871
-0.0978003
-0.0882159
-0.0757046
-0.0612276
-0.0460277
-0.0313216
-0.0182777
-0.00764094
0.000235192
0.00563397
0.00930538
0.0122156
0.0155051
0.0200078
0.0261772
0.033935
0.0429061
0.0524674
0.0620122
0.0710747
0.0793499
0.0865995
0.0925961
0.0970596
0.0998817
0.100924
0.100345
0.0984726
0.0957504
0.0926999
0.0898771
0.0876897
0.086503
0.08643
0.0875987
0.0897907
0.0926695
0.0957393
0.0983778
0.100017
0.100242
0.098955
0.0963553
0.0931019
0.0899024
0.0874571
0.08622
0.0862003
0.0869566
0.0877671
0.0877375
0.0862379
0.0829375
0.077862
0.0715251
0.0647059
0.0581331
0.0525294
0.0481743
0.0451613
0.0432049
0.0418248
0.0405335
0.0388552
0.036523
0.0334779
0.0298974
0.0261678
0.0227582
0.0199785
0.0179995
0.0166374
0.0154772
0.0140035
0.0117997
0.00873565
0.00509399
0.00148121
-0.00129985
-0.00246887
-0.00164366
0.000894878
0.00441754
0.00767288
0.00942016
0.00874618
0.00531251
-0.000411214
-0.00742298
-0.0144095
-0.0201452
-0.0239061
-0.0254827
-0.0252669
-0.0240123
-0.0226825
-0.0220857
-0.0226625
-0.0244808
-0.0270415
-0.0296825
-0.0316711
-0.0324233
-0.0317359
-0.029802
-0.0271201
-0.0244496
-0.0223808
-0.0214921
-0.0220091
-0.0239095
-0.0269029
-0.0305324
-0.0342277
-0.0373647
-0.0394017
-0.0400323
-0.0390794
-0.0366087
-0.0328022
-0.0278663
-0.0220007
-0.0154315
-0.00834819
-0.000968483
0.00632003
0.0131331
0.0190525
0.0237764
0.027203
0.0295593
0.0313525
0.0333479
0.0361869
0.040322
0.0458817
0.052531
0.0596145
0.0664892
0.0725366
0.0772553
0.0804156
0.0817669
0.0810908
0.078282
0.0734948
0.0671461
0.0601301
0.0536466
0.0489655
0.0470997
0.0483828
0.0520972
0.0566901
0.0598928
0.0594171
0.0536797
0.0422657
0.0261776
0.00748423
-0.0111047
-0.0272555
-0.0394551
-0.0472729
-0.0514643
-0.0532877
-0.0541582
-0.0552456
-0.0571966
-0.0601473
-0.0638647
-0.0678648
-0.0715801
-0.0744285
-0.0759365
-0.0758482
-0.0741416
-0.0710645
-0.0669667
-0.0624422
-0.0580352
-0.0542883
-0.0519212
-0.0518349
-0.0553192
-0.0638006
-0.0787508
-0.101228
-0.130966
-0.165602
-0.19981
-0.225389
-0.231909
-0.208354
-0.145137
-0.0362261
0.118848
0.313644
0.534483
0.761078
0.968278
1.12907
1.21905
1.22127
1.13095
0.957913
0.725298
0.465265
0.2121
-0.00500187
-0.167309
-0.268919
-0.315559
-0.32062
-0.300306
-0.269387
-0.238677
-0.214252
-0.198189
-0.189732
-0.186728
-0.186847
-0.18821
-0.189646
-0.190622
-0.191143
-0.191416
-0.191605
-0.191785
-0.191698
-0.190934
-0.189178
-0.186125
-0.181907
-0.176893
-0.171662
-0.166792
-0.162748
-0.159744
-0.157747
-0.156538
-0.155728
-0.15494
-0.153884
-0.152337
-0.150388
-0.148331
-0.146582
-0.145642
-0.145785
-0.14696
-0.148795
-0.150643
-0.151958
-0.152348
-0.151776
-0.15051
-0.148865
-0.147115
-0.145266
-0.143137
-0.140448
-0.136968
-0.13276
-0.128165
-0.123714
-0.120066
-0.117872
-0.117433
-0.118821
-0.121746
-0.125605
-0.129617
-0.133102
-0.135571
-0.136947
-0.137507
-0.137684
-0.138036
-0.138742
-0.139852
-0.14109
-0.142038
-0.142362
-0.142082
-0.141459
-0.141
-0.141278
-0.142742
-0.145412
-0.148979
-0.152841
-0.15615
-0.15799
-0.157575
-0.154325
-0.148036
-0.138832
-0.127197
-0.113732
-0.099123
-0.0839971
-0.0687743
-0.0537476
-0.0391403
-0.0251821
-0.0120349
0.000184067
0.0114917
0.0220353
0.0321912
0.0423346
0.0526642
0.0631946
0.0736401
0.0834034
0.0919126
0.0986344
0.103303
0.105959
0.106867
0.106529
0.105405
0.103881
0.102212
0.100401
0.0981903
0.0954041
0.0918503
0.0876581
0.083344
0.079694
0.0775428
0.0774271
0.0792761
0.0823826
0.0856015
0.0876519
0.0877156
0.0856234
0.0819707
0.0777964
0.074157
0.0717756
0.0707064
0.0705771
0.0707664
0.0707466
0.0701808
0.0690021
0.0671863
0.0647083
0.0615169
0.0575183
0.0529997
0.0484339
0.0444481
0.0415053
0.0396924
0.0386863
0.0378611
0.0366959
0.0348781
0.0325461
0.0301053
0.028065
0.0266824
0.0260262
0.0257947
0.0255366
0.0249216
0.0237132
0.0219334
0.0196049
0.0169582
0.0141439
0.0113089
0.00840697
0.00543475
0.00241855
-0.00056112
-0.00339415
-0.00588893
-0.007922
-0.00945214
-0.0105558
-0.0112992
-0.0117981
-0.011978
-0.0117595
-0.0110473
-0.009984
-0.00876148
-0.00791304
-0.00794378
-0.00915196
-0.0114663
-0.0144813
-0.0175421
-0.0200643
-0.0217141
-0.0224609
-0.0225226
-0.022126
-0.0212642
-0.0197818
-0.0173074
-0.0134376
-0.00795663
-0.000902844
0.00722455
0.0158246
0.0241745
0.0317144
0.0381003
0.0433635
0.0477655
0.0519643
0.0564139
0.0615546
0.0674926
0.0739672
0.0803363
0.0857715
0.0892512
0.0900501
0.0878073
0.0826746
0.0753485
0.0669115
0.058331
0.0506105
0.0443632
0.0401104
0.0380824
0.0384062
0.0410389
0.0453854
0.0503799
0.0544457
0.0558156
0.0530691
0.0456576
0.0338733
0.0190535
0.0030135
-0.0124484
-0.0259799
-0.0369134
-0.0452806
-0.0514163
-0.0558987
-0.0591936
-0.061591
-0.0631458
-0.0639058
-0.0638314
-0.0630596
-0.0618771
-0.0607095
-0.0598835
-0.0595478
-0.0595609
-0.0595914
-0.059382
-0.0589398
-0.0587795
-0.0599587
-0.0640245
-0.0723537
-0.0860562
-0.105733
-0.131412
-0.162356
-0.196902
-0.232388
-0.265076
-0.29021
-0.302282
-0.295484
-0.263809
-0.201057
-0.101278
0.0395681
0.221112
0.435217
0.663322
0.876415
1.03913
1.11813
1.09217
0.960128
0.743472
0.481425
0.220583
0.001831
-0.14972
-0.229032
-0.248195
-0.22911
-0.19471
-0.162017
-0.139643
-0.128736
-0.126394
-0.128499
-0.131848
-0.134623
-0.13631
-0.136856
-0.136307
-0.134831
-0.13274
-0.130563
-0.128887
-0.128164
-0.128539
-0.129781
-0.131489
-0.133038
-0.134004
-0.13416
-0.13357
-0.132344
-0.130762
-0.12904
-0.127252
-0.125388
-0.123197
-0.120509
-0.117144
-0.113124
-0.10865
-0.104077
-0.099837
-0.0962076
-0.0933577
-0.091231
-0.0895431
-0.0880092
-0.0863471
-0.0844097
-0.0823374
-0.0804966
-0.0792723
-0.0791357
-0.0803534
-0.0828303
-0.0861049
-0.0894068
-0.0918648
-0.0928083
-0.0919029
-0.0891887
-0.0853075
-0.0810319
-0.0772119
-0.0744929
-0.0731116
-0.073017
-0.0737836
-0.0749771
-0.0761881
-0.0772051
-0.0780892
-0.0790215
-0.0802573
-0.0819817
-0.0842829
-0.0871377
-0.090569
-0.0945859
-0.0992889
-0.104705
-0.110758
-0.117219
-0.123624
-0.129422
-0.134055
-0.137059
-0.138048
-0.136722
-0.132734
-0.125677
-0.115248
-0.101352
-0.0843836
-0.0651495
-0.0448339
-0.0246923
-0.00575243
0.0113699
0.0265955
0.0401821
0.0525986
0.064241
0.0753058
0.0857513
0.0953876
0.103987
0.111394
0.11754
0.122453
0.126254
0.129109
0.131137
0.132584
0.133667
0.134563
0.135438
0.136368
0.137275
0.138093
0.138647
0.138843
0.138589
0.137822
0.136457
0.134456
0.131722
0.128229
0.123998
0.119168
0.113867
0.108397
0.102958
0.0977615
0.0930254
0.088894
0.0854918
0.0830221
0.0816872
0.0816462
0.0829084
0.0853226
0.0884008
0.091428
0.0935991
0.0941586
0.0926712
0.0890942
0.0838597
0.077688
0.0714701
0.0659249
0.0615147
0.0582776
0.0559895
0.054201
0.0524437
0.0503242
0.047601
0.0442727
0.0404986
0.0366275
0.0331815
0.0306029
0.0291674
0.0289033
0.0295709
0.0306696
0.0317006
0.0322079
0.0319389
0.0308635
0.0291322
0.0269912
0.0246793
0.0224145
0.0203336
0.018489
0.0168457
0.0153274
0.0137144
0.0118463
0.00963666
0.00694636
0.00380719
0.000273684
-0.00348369
-0.00727517
-0.0108687
-0.0140406
-0.0165915
-0.0183699
-0.0193313
-0.0194834
-0.0189963
-0.0179684
-0.0165569
-0.014908
-0.0131949
-0.0116266
-0.0105125
-0.0100446
-0.0103113
-0.0110794
-0.0117116
-0.0114176
-0.00920264
-0.00454158
0.00255063
0.0114688
0.020973
0.0297117
0.0365963
0.0411451
0.0436498
0.0449414
0.0462153
0.0484827
0.0522556
0.0576147
0.0640979
0.0708882
0.077063
0.0817053
0.0841542
0.0840811
0.0816377
0.0773413
0.0721273
0.0669634
0.0626978
0.0599677
0.0590974
0.0602694
0.06332
0.0675435
0.0718673
0.0747262
0.0743785
0.0694307
0.0592421
0.0442989
0.0260231
0.0063889
-0.0124725
-0.0289416
-0.0420401
-0.0515452
-0.0577313
-0.0611998
-0.0627129
-0.0630082
-0.0627025
-0.0622056
-0.0617441
-0.0613522
-0.0609738
-0.0605242
-0.0600003
-0.0594809
-0.0590208
-0.0585362
-0.057906
-0.0570713
-0.0562837
-0.05622
-0.0579373
-0.0627096
-0.0716985
-0.085561
-0.104373
-0.127742
-0.15489
-0.184774
-0.215514
-0.24368
-0.263698
-0.267745
-0.245805
-0.186579
-0.0798491
0.079992
0.289818
0.534304
0.784737
1.00208
1.14493
1.1808
1.09679
0.905519
0.643256
0.360012
0.105157
-0.0859982
-0.199723
-0.243541
-0.239042
-0.211748
-0.182422
-0.16228
-0.153555
-0.153115
-0.156434
-0.160112
-0.162657
-0.164169
-0.165266
-0.166242
-0.166851
-0.166689
-0.165539
-0.163446
-0.160833
-0.158301
-0.156472
-0.155766
-0.156256
-0.157654
-0.159437
-0.160935
-0.161582
-0.161018
-0.159181
-0.156264
-0.15263
-0.148759
-0.145169
-0.14221
-0.139944
-0.138144
-0.136292
-0.13387
-0.130431
-0.125804
-0.120318
-0.114655
-0.109609
-0.105946
-0.104187
-0.104481
-0.10654
-0.109768
-0.11336
-0.116591
-0.118848
-0.119792
-0.119421
-0.118061
-0.116125
-0.113978
-0.111912
-0.110034
-0.108274
-0.106484
-0.104582
-0.102568
-0.100657
-0.0990557
-0.0980387
-0.0978194
-0.0984407
-0.0997557
-0.10155
-0.103687
-0.105963
-0.108302
-0.110699
-0.113132
-0.115663
-0.11824
-0.120831
-0.123364
-0.125778
-0.127882
-0.129389
-0.129962
-0.129135
-0.126347
-0.121105
-0.11292
-0.101455
-0.0866704
-0.0687599
-0.0485034
-0.0269819
-0.00559562
0.0142649
0.0314715
0.0454973
0.0565424
0.0653374
0.0728235
0.0798062
0.0866442
0.0931731
0.0989215
0.10329
0.105882
0.106681
0.10599
0.104396
0.102517
0.100934
0.100029
0.0999509
0.100614
0.101692
0.102824
0.103551
0.103646
0.10312
0.102144
0.100991
0.0999385
0.0990674
0.0982899
0.0973452
0.0959731
0.093933
0.0910969
0.0875088
0.0832351
0.0783804
0.0730552
0.0673701
0.0615509
0.0559087
0.0507963
0.0465695
0.0433656
0.0412039
0.0398954
0.0391095
0.0385172
0.0378685
0.0370484
0.0359312
0.0345442
0.0329061
0.0310853
0.0290963
0.0270439
0.0250098
0.0229796
0.0209453
0.0188387
0.0165887
0.0142895
0.0120847
0.0102172
0.00883832
0.00804555
0.00764964
0.00742229
0.00703234
0.00629641
0.0050541
0.00331168
0.00113408
-0.00135225
-0.00403441
-0.00671082
-0.00907918
-0.0108455
-0.0117514
-0.0118075
-0.0111307
-0.0100836
-0.00904419
-0.00830159
-0.00804685
-0.00820888
-0.0085849
-0.00902498
-0.0093193
-0.00941752
-0.00927384
-0.00899542
-0.00866763
-0.0083056
-0.00791627
-0.00752866
-0.00718699
-0.00708727
-0.00740215
-0.00832483
-0.00988684
-0.0117984
-0.0134825
-0.0141584
-0.0129888
-0.0092537
-0.00268218
0.00643227
0.0172343
0.0285224
0.0390709
0.0479455
0.0549023
0.0603182
0.0651718
0.0705202
0.0770173
0.0846182
0.0925133
0.0992549
0.103447
0.104064
0.100947
0.0948226
0.0869821
0.0789056
0.0717208
0.0658736
0.0611495
0.0570861
0.0533748
0.0501905
0.0483274
0.0488997
0.0526838
0.0595119
0.0680402
0.0759161
0.0803262
0.0790717
0.0711233
0.057002
0.0386858
0.0187996
1.04813e-5
-0.0158003
-0.0278202
-0.0360963
-0.0413749
-0.0446439
-0.0467132
-0.0481349
-0.049231
-0.0500638
-0.0506294
-0.0510103
-0.0513773
-0.0519207
-0.05275
-0.0538812
-0.055014
-0.0557558
-0.0557116
-0.0547762
-0.0531423
-0.0516236
-0.0517046
-0.0553195
-0.0646024
-0.081408
-0.106699
-0.139802
-0.178071
-0.216406
-0.247544
-0.26288
-0.253541
-0.210966
-0.127724
0.000796307
0.174313
0.384748
0.613933
0.833445
1.00813
1.10373
1.09657
0.982374
0.77961
0.525945
0.267743
0.0470055
-0.109436
-0.194947
-0.220967
-0.209233
-0.182728
-0.158545
-0.144663
-0.141538
-0.145484
-0.152156
-0.158403
-0.162923
-0.165619
-0.166767
-0.166649
-0.16528
-0.162858
-0.159719
-0.156412
-0.153422
-0.151022
-0.149182
-0.147535
-0.145627
-0.143092
-0.139724
-0.135661
-0.131187
-0.126614
-0.122222
-0.118237
-0.114755
-0.112012
-0.110086
-0.109154
-0.109311
-0.110431
-0.112202
-0.114233
-0.116021
-0.117073
-0.117181
-0.116233
-0.114384
-0.1119
-0.109103
-0.106231
-0.103532
-0.101129
-0.0991215
-0.0975785
-0.0965474
-0.0960556
-0.0960187
-0.0962782
-0.0965787
-0.0967671
-0.0967552
-0.09655
-0.0964057
-0.0965601
-0.0971655
-0.0982395
-0.0995976
-0.100826
-0.101528
-0.101453
-0.100634
-0.0993324
-0.0979612
-0.0968892
-0.0962865
-0.0961271
-0.0962224
-0.0963648
-0.0964461
-0.0965936
-0.097007
-0.0979116
-0.0993586
-0.101166
-0.102957
-0.104169
-0.104296
-0.102854
-0.0995063
-0.0940068
-0.0861615
-0.0759237
-0.0634259
-0.0491188
-0.033713
-0.0181533
-0.003254
0.0103108
0.0222636
0.0327854
0.0422139
0.0509004
0.0591699
0.0672111
0.0750356
0.0826898
0.0900259
0.09692
0.103036
0.107941
0.111177
0.112473
0.111828
0.109652
0.106736
0.103948
0.101966
0.101175
0.101409
0.102208
0.102885
0.102786
0.101343
0.0984079
0.0941735
0.0891255
0.0839515
0.0794139
0.0761391
0.0743904
0.0741594
0.0750283
0.0765204
0.0781441
0.0796208
0.080785
0.081546
0.0817852
0.0814401
0.0804748
0.078977
0.0772127
0.0755243
0.0740938
0.0729678
0.0719268
0.070559
0.0684644
0.0654425
0.061456
0.0567349
0.0515735
0.0463538
0.0413468
0.0367349
0.0326024
0.0289641
0.0258866
0.0234373
0.0216986
0.0207206
0.0205162
0.0209527
0.021732
0.0224615
0.0226997
0.0221854
0.0208823
0.0191471
0.0174289
0.0161976
0.0156548
0.0157282
0.0160262
0.0160354
0.0154073
0.0139206
0.0116483
0.00877321
0.00552758
0.00206411
-0.00140895
-0.00465
-0.0073201
-0.00907734
-0.00967773
-0.00910575
-0.00763628
-0.00574092
-0.00389661
-0.00256552
-0.00176321
-0.00132626
-0.000875345
-0.0001701
0.000907235
0.00211382
0.00302612
0.00325159
0.00262784
0.00138506
3.0724e-5
-0.000619461
0.000169566
0.00295925
0.00789488
0.0147523
0.0229617
0.0317429
0.0402172
0.0476652
0.053692
0.0581741
0.0614326
0.0640738
0.0667245
0.0699727
0.0739564
0.0785682
0.0831982
0.0871513
0.0896541
0.0901756
0.0884796
0.0846249
0.0791579
0.0729363
0.0671752
0.0631747
0.0620164
0.064029
0.0686315
0.0742196
0.0785523
0.0794474
0.0755409
0.066603
0.0536474
0.0384578
0.0228999
0.00843082
-0.00431222
-0.0153072
-0.0249327
-0.0336871
-0.0417126
-0.0489205
-0.0550061
-0.0597176
-0.0628998
-0.0646642
-0.0653407
-0.0653168
-0.0649309
-0.0644397
-0.0639553
-0.0635027
-0.0631215
-0.0628792
-0.0627282
-0.0625502
-0.0621233
-0.0610828
-0.059213
-0.0565675
-0.0538683
-0.052693
-0.0552335
-0.0640803
-0.0814736
-0.108437
-0.143847
-0.183655
-0.220658
-0.244971
-0.244932
-0.208751
-0.12676
0.00571723
0.185383
0.398592
0.620946
0.819909
0.960895
1.01564
0.970284
0.83067
0.621907
0.382241
0.152684
-0.0335979
-0.158562
-0.221287
-0.23442
-0.21719
-0.188422
-0.161541
-0.143005
-0.133681
-0.131403
-0.133166
-0.13673
-0.140754
-0.144621
-0.148026
-0.150747
-0.152686
-0.153865
-0.154428
-0.15464
-0.154615
-0.154373
-0.153731
-0.152391
-0.15023
-0.14725
-0.143679
-0.139943
-0.136375
-0.133085
-0.130021
-0.126874
-0.123436
-0.119725
-0.116029
-0.112799
-0.11051
-0.109223
-0.108579
-0.108017
-0.106985
-0.105334
-0.103396
-0.101936
-0.101769
-0.103365
-0.106685
-0.11107
-0.115604
-0.119412
-0.121949
-0.12301
-0.122754
-0.121395
-0.119065
-0.115837
-0.111778
-0.107185
-0.102563
-0.098525
-0.0956983
-0.0944591
-0.0946847
-0.0959516
-0.0976488
-0.0991723
-0.100174
-0.100606
-0.100667
-0.10057
-0.100389
-0.100033
-0.0993073
-0.0981497
-0.0968234
-0.0958686
-0.0959104
-0.0975892
-0.101103
-0.106091
-0.111862
-0.117519
-0.122319
-0.125865
-0.12809
-0.129095
-0.128906
-0.127303
-0.123888
-0.11817
-0.109911
-0.0992892
-0.0869366
-0.0739786
-0.0616227
-0.05092
-0.042476
-0.0362376
-0.031611
-0.0276697
-0.023347
-0.0178447
-0.010839
-0.00249552
0.0066689
0.0159364
0.0248974
0.033461
0.0418466
0.0503965
0.0593645
0.0685783
0.0774241
0.0849699
0.0903117
0.0929067
0.0927714
0.0906532
0.0875609
0.0847003
0.0828328
0.0822392
0.0825185
0.0829358
0.0827296
0.0815007
0.0793771
0.0769923
0.075123
0.0743403
0.0748371
0.0761992
0.0776201
0.0780972
0.0769601
0.074034
0.0696475
0.0644705
0.0592084
0.054417
0.0502571
0.0465511
0.0431008
0.0396073
0.0361246
0.0328375
0.0300768
0.0279769
0.0265243
0.0254692
0.0244503
0.0232803
0.0219017
0.0204716
0.0192445
0.0184768
0.0179912
0.0173893
0.0159999
0.0133225
0.00911343
0.00371986
-0.0020254
-0.00709266
-0.0106134
-0.0122233
-0.0121107
-0.0110036
-0.00990372
-0.0096054
-0.010422
-0.0121051
-0.0138531
-0.0146452
-0.013691
-0.0105819
-0.00564696
0.000169241
0.00568524
0.00971775
0.0115617
0.0110153
0.00852196
0.00490592
0.00102253
-0.00237029
-0.00479586
-0.00608557
-0.00646148
-0.00636387
-0.00633154
-0.00701159
-0.0089704
-0.0125869
-0.0178909
-0.0245113
-0.0317197
-0.038444
-0.0435091
-0.0459815
-0.0451749
-0.0410674
-0.0339799
-0.0246866
-0.0141358
-0.00319612
0.00737083
0.0170508
0.0256038
0.032895
0.0390592
0.0443068
0.0489602
0.0533567
0.0578611
0.0625693
0.0673186
0.0717069
0.0751035
0.0768528
0.0764571
0.0736894
0.0687321
0.0620738
0.0544751
0.0469283
0.0403953
0.0357813
0.0336274
0.034073
0.0366255
0.0403219
0.0438531
0.0458507
0.0451194
0.0409243
0.0330455
0.0218897
0.00835711
-0.00626838
-0.020582
-0.0332146
-0.043108
-0.0497632
-0.0533376
-0.0545305
-0.0544393
-0.0541563
-0.0545094
-0.0558171
-0.0579058
-0.0602635
-0.0623345
-0.063714
-0.0643269
-0.0643811
-0.0641165
-0.0636433
-0.0628366
-0.0613872
-0.0589622
-0.0553128
-0.050548
-0.0451976
-0.040125
-0.0364068
-0.0350889
-0.0369634
-0.0424624
-0.0518001
-0.0649368
-0.081843
-0.102609
-0.127203
-0.154803
-0.182895
-0.206681
-0.218882
-0.210068
-0.169896
-0.0889127
0.0386892
0.211998
0.42074
0.64407
0.85196
1.01006
1.0874
1.06502
0.9425
0.739718
0.49248
0.243213
0.0298163
-0.12346
-0.209845
-0.238503
-0.228204
-0.199643
-0.169357
-0.146776
-0.134577
-0.130999
-0.132542
-0.135894
-0.138921
-0.140644
-0.140917
-0.140082
-0.13858
-0.136997
-0.135833
-0.135386
-0.135672
-0.136405
-0.137068
-0.137121
-0.136134
-0.13383
-0.130284
-0.125844
-0.121118
-0.116638
-0.112854
-0.109968
-0.107821
-0.106025
-0.104119
-0.101811
-0.0990144
-0.09593
-0.0928384
-0.0901498
-0.0881994
-0.086989
-0.0865198
-0.0867317
-0.0875347
-0.088909
-0.0907902
-0.0930302
-0.0953503
-0.0973245
-0.098497
-0.0986569
-0.0977571
-0.0960383
-0.0938951
-0.0917466
-0.089829
-0.0882502
-0.0869557
-0.0858093
-0.0847734
-0.0838054
-0.0830013
-0.0824597
-0.0822578
-0.0824363
-0.0829073
-0.0836682
-0.084682
-0.0859188
-0.0874691
-0.0893966
-0.0916907
-0.0942616
-0.0969275
-0.0995292
-0.101935
-0.104148
-0.106377
-0.108919
-0.112018
-0.115797
-0.120162
-0.124693
-0.128747
-0.131595
-0.132486
-0.130998
-0.126947
-0.120568
-0.112453
-0.103388
-0.0942274
-0.0855867
-0.0777134
-0.0704947
-0.0634213
-0.055835
-0.0471919
-0.0371843
-0.0257931
-0.0131971
0.000218764
0.0140642
0.0279723
0.0416992
0.0548632
0.0671884
0.0783498
0.0880499
0.0961517
0.102697
0.107911
0.112192
0.11595
0.119432
0.12266
0.125448
0.1274
0.128192
0.127637
0.125855
0.123165
0.120051
0.11698
0.11431
0.112222
0.110647
0.109414
0.108287
0.107104
0.105774
0.104435
0.103215
0.102238
0.101527
0.101014
0.100574
0.100109
0.0995618
0.0988531
0.0979445
0.0965941
0.0945529
0.0916396
0.0877798
0.0831945
0.0783028
0.0736633
0.0696874
0.0665886
0.0644577
0.0630453
0.0620345
0.0611126
0.0599659
0.0584937
0.0567183
0.0548
0.0529911
0.0515037
0.050451
0.0498072
0.0494277
0.0490621
0.0485033
0.047682
0.0466343
0.0455656
0.0446204
0.0439356
0.0435132
0.0431877
0.0427042
0.0418179
0.0403421
0.0382602
0.0355414
0.0323858
0.0290137
0.0256307
0.0224914
0.0198419
0.0179469
0.017051
0.0172452
0.0184473
0.0203461
0.0224305
0.0241105
0.0249711
0.0248307
0.023748
0.0219518
0.0198016
0.0175804
0.0154455
0.0135118
0.0119463
0.0108681
0.0103182
0.0102661
0.0104859
0.0107083
0.0105886
0.0100171
0.00900158
0.00781496
0.00696483
0.00708222
0.00891195
0.0131186
0.0201146
0.0298013
0.0415435
0.054247
0.0665047
0.0769688
0.0847138
0.08946
0.0916187
0.0921753
0.0923469
0.0932317
0.0954081
0.0988866
0.103107
0.107086
0.109763
0.110297
0.108324
0.10388
0.0974658
0.089869
0.0820369
0.0749941
0.0698196
0.0674551
0.0684904
0.0728472
0.0795609
0.0867611
0.0921408
0.0935896
0.0896739
0.0802542
0.0663381
0.0497423
0.0325105
0.0162684
0.00185745
-0.0104577
-0.0208781
-0.0296658
-0.0369182
-0.042541
-0.0464593
-0.0486495
-0.0493401
-0.0489682
-0.0481503
-0.0474252
-0.0471152
-0.0471582
-0.047311
-0.047164
-0.046405
-0.0448509
-0.0426786
-0.040395
-0.0385007
-0.0376681
-0.0386905
-0.0426555
-0.0509858
-0.065168
-0.0862731
-0.114272
-0.147103
-0.180274
-0.207029
-0.219501
-0.210239
-0.174015
-0.108747
-0.0157235
0.10134
0.237948
0.390171
0.554936
0.728938
0.906537
1.07686
1.22243
1.32037
1.3471
1.28553
1.13225
0.901532
0.624165
0.340513
0.0900485
-0.0987565
-0.214744
-0.264317
-0.266247
-0.243614
-0.216118
-0.195744
-0.186362
-0.186318
-0.191649
-0.198702
-0.205283
-0.210669
-0.214888
-0.218055
-0.220155
-0.221087
-0.220899
-0.219803
-0.218128
-0.216199
-0.214259
-0.21234
-0.210312
-0.207982
-0.20529
-0.202226
-0.198924
-0.195602
-0.192462
-0.189563
-0.186833
-0.18418
-0.181461
-0.178588
-0.175674
-0.172843
-0.170286
-0.168126
-0.166379
-0.164912
-0.163683
-0.16264
-0.161921
-0.161649
-0.16193
-0.162789
-0.164072
-0.165496
-0.16682
-0.167851
-0.168541
-0.16893
-0.169008
-0.16883
-0.168323
-0.167484
-0.166332
-0.164936
-0.163399
-0.161841
-0.160344
-0.159016
-0.157895
-0.157009
-0.156349
-0.155835
-0.155356
-0.154858
-0.154271
-0.153727
-0.153462
-0.153712
-0.154761
-0.156761
-0.159628
-0.163189
-0.167056
-0.170658
-0.173446
-0.174797
-0.174201
-0.171276
-0.165896
-0.158124
-0.148152
-0.136292
-0.122756
-0.107827
-0.0918523
-0.0752858
-0.0588353
-0.0433855
-0.0297235
-0.0183399
-0.00934787
-0.00234289
0.00336523
0.00853993
0.0137772
0.0193679
0.0252547
0.0312586
0.0372475
0.0430796
0.0488473
0.0547004
0.0608005
0.0673171
0.0742549
0.0816016
0.0891444
0.096659
0.103702
0.109939
0.115049
0.118864
0.121415
0.122938
0.123635
0.123739
0.123402
0.122683
0.121782
0.120792
0.119826
0.118817
0.117544
0.115672
0.112838
0.108924
0.104079
0.0987103
0.0933195
0.0883425
0.0841486
0.0808283
0.0783989
0.0768235
0.0760139
0.0758563
0.0761515
0.0766029
0.0768987
0.0767723
0.0759799
0.0744338
0.0721703
0.0693401
0.0660639
0.0625767
0.0590626
0.055605
0.0523332
0.0492137
0.0462661
0.0434799
0.0408035
0.0382043
0.0357029
0.0332416
0.0307088
0.0280001
0.0249864
0.021559
0.0178052
0.0138498
0.00993665
0.00632295
0.00323848
0.000782422
-0.00084407
-0.00157629
-0.00146595
-0.000587188
0.000775565
0.0022511
0.00338672
0.00384685
0.00340359
0.00209647
0.000135166
-0.00213263
-0.00439838
-0.00637724
-0.00799014
-0.00920931
-0.010153
-0.011045
-0.0120621
-0.0133191
-0.0148602
-0.0166539
-0.0186492
-0.0208271
-0.0230062
-0.0250992
-0.0269752
-0.028503
-0.0296163
-0.0304337
-0.0310663
-0.0316978
-0.0324465
-0.0332727
-0.0339541
-0.0339912
-0.0330266
-0.030827
-0.0274184
-0.0229994
-0.0177836
-0.011938
-0.00536323
0.00217663
0.0108924
0.020756
0.0312644
0.0415135
0.050584
0.0577623
0.0627468
0.0659415
0.0681555
0.0702686
0.0730261
0.0767225
0.0810261
0.0852368
0.0883322
0.0895258
0.088335
0.0847166
0.0791211
0.0722625
0.0650644
0.0584629
0.053393
0.0508183
0.0514438
0.0556132
0.0628625
0.0717707
0.080135
0.0856722
0.0864322
0.0816829
0.0720172
0.0591039
0.045104
0.0318627
0.0204758
0.0109953
0.00282218
-0.00500165
-0.0131349
-0.0218278
-0.0306397
-0.0388893
-0.0457519
-0.0507649
-0.0539581
-0.0558995
-0.0575006
-0.0596991
-0.0630522
-0.0675618
-0.072649
-0.0773435
-0.0805956
-0.081834
-0.0809287
-0.0781723
-0.074159
-0.0695085
-0.0648791
-0.0608231
-0.0580809
-0.057568
-0.0605382
-0.0684941
-0.0827976
-0.104245
-0.132646
-0.166112
-0.200773
-0.230774
-0.248899
-0.247655
-0.220707
-0.163704
-0.0745967
0.0467587
0.198772
0.377406
0.574909
0.777935
0.966333
1.11413
1.19408
1.18482
1.07866
0.886241
0.636074
0.368034
0.122989
-0.0676834
-0.189337
-0.24513
-0.251525
-0.230699
-0.202684
-0.180442
-0.168822
-0.166738
-0.170137
-0.175006
-0.178677
-0.180218
-0.179924
-0.17842
-0.176376
-0.174327
-0.172738
-0.171822
-0.171688
-0.172241
-0.173255
-0.174367
-0.175221
-0.175498
-0.175006
-0.173771
-0.171817
-0.169242
-0.166252
-0.162942
-0.159444
-0.155833
-0.152223
-0.148672
-0.145284
-0.142103
-0.13926
-0.13678
-0.134663
-0.132833
-0.131165
-0.129506
-0.127695
-0.125769
-0.123793
-0.121933
-0.120352
-0.119164
-0.118415
-0.118161
-0.118369
-0.119104
-0.12035
-0.122169
-0.124452
-0.126994
-0.129511
-0.131705
-0.13329
-0.134062
-0.133936
-0.132899
-0.130987
-0.128414
-0.12539
-0.1222
-0.119186
-0.116619
-0.114732
-0.113579
-0.113129
-0.113268
-0.113847
-0.114761
-0.115905
-0.117226
-0.118761
-0.120468
-0.122427
-0.124618
-0.126958
-0.129238
-0.131008
-0.13175
-0.130785
-0.127555
-0.121601
-0.112828
-0.101436
-0.0880253
-0.0735239
-0.0590434
-0.0455338
-0.0338318
-0.0242522
-0.0168018
-0.0112026
-0.00690625
-0.00326934
0.000288059
0.00426827
0.00910308
0.0150997
0.0223632
0.0306875
0.0396434
0.0486346
0.0570288
0.0643632
0.0704636
0.0754292
0.0796812
0.0836552
0.0876673
0.0918305
0.0960264
0.0999672
0.103433
0.106282
0.108613
0.110505
0.112114
0.113585
0.114904
0.115892
0.116359
0.115987
0.114534
0.111771
0.107629
0.102364
0.0964507
0.0905552
0.0854556
0.0817295
0.0797251
0.0793389
0.0800572
0.0812077
0.0820862
0.0822012
0.0813877
0.0798085
0.0777434
0.07547
0.0731647
0.0708268
0.0683206
0.0655697
0.0625398
0.0593633
0.0561635
0.0531813
0.0504928
0.0481708
0.0461761
0.044486
0.0430562
0.0418272
0.0407205
0.0395095
0.0378825
0.0355198
0.0323473
0.0285008
0.0245373
0.0211823
0.0190643
0.0184634
0.019139
0.0204047
0.0213939
0.0213898
0.0201868
0.0179878
0.0153916
0.0130162
0.0113564
0.0105465
0.0103715
0.0103742
0.0101198
0.00920142
0.00747868
0.00504535
0.00208819
-0.00101225
-0.00389277
-0.00628448
-0.00819246
-0.00974028
-0.0111546
-0.0126691
-0.0142862
-0.0157982
-0.0168355
-0.0170635
-0.01638
-0.0149808
-0.0133173
-0.0119843
-0.0113779
-0.011522
-0.0122158
-0.0130369
-0.0135193
-0.0132933
-0.0121961
-0.0101891
-0.00726357
-0.00345714
0.00119347
0.00660779
0.0124854
0.0185097
0.0242492
0.0293181
0.0335209
0.0370056
0.0401285
0.0434708
0.0475718
0.0527938
0.059054
0.0658822
0.0724741
0.077977
0.0817159
0.0832855
0.0827394
0.0804993
0.077118
0.0731681
0.0692568
0.0660242
0.0641246
0.0641169
0.0661576
0.0696232
0.0732126
0.0748424
0.072463
0.0645846
0.0509297
0.0324814
0.0113556
-0.00990307
-0.0290667
-0.044677
-0.0561315
-0.0635861
-0.0676794
-0.0690624
-0.0684883
-0.0665163
-0.0635924
-0.0602627
-0.0570405
-0.0544556
-0.0529352
-0.0527114
-0.0536391
-0.0554414
-0.0576128
-0.0595675
-0.0609406
-0.06143
-0.0609812
-0.0596328
-0.057746
-0.0559543
-0.0554595
-0.0581112
-0.0660028
-0.0811474
-0.104844
-0.136949
-0.1752
-0.214754
-0.24821
-0.266196
-0.257949
-0.212549
-0.121069
0.0204776
0.20805
0.426968
0.651331
0.847088
0.978764
1.01851
0.954807
0.797131
0.574654
0.328612
0.100977
-0.0765001
-0.189146
-0.239877
-0.24443
-0.223526
-0.195584
-0.172165
-0.157302
-0.149869
-0.146557
-0.144263
-0.141411
-0.137904
-0.134376
-0.131388
-0.129135
-0.127503
-0.126263
-0.125193
-0.124176
-0.123242
-0.122431
-0.121757
-0.121194
-0.120755
-0.120376
-0.120034
-0.119566
-0.118695
-0.117156
-0.114733
-0.111455
-0.107636
-0.103921
-0.101116
-0.0998311
-0.100398
-0.102498
-0.10546
-0.108316
-0.110197
-0.110528
-0.109067
-0.106007
-0.101823
-0.0972218
-0.0929649
-0.0897354
-0.0879461
-0.0876206
-0.0884164
-0.0896015
-0.0903992
-0.0902533
-0.089075
-0.0871705
-0.0851691
-0.0836001
-0.082777
-0.0826913
-0.0830005
-0.0835182
-0.0841064
-0.0849354
-0.0861166
-0.0877314
-0.0895064
-0.0909875
-0.0916447
-0.0911961
-0.0897156
-0.0877228
-0.0859285
-0.0851118
-0.08587
-0.0885088
-0.0928682
-0.0986455
-0.105234
-0.111899
-0.117895
-0.122516
-0.125251
-0.125856
-0.124313
-0.120717
-0.115463
-0.108735
-0.100875
-0.0920781
-0.0825969
-0.072686
-0.062609
-0.0526455
-0.0429935
-0.0336894
-0.0244857
-0.0149268
-0.00452854
0.00712447
0.0200265
0.0337469
0.047336
0.0596575
0.0697176
0.0769594
0.0815346
0.0841574
0.0859514
0.0879327
0.0906402
0.0939649
0.097405
0.100155
0.101593
0.101469
0.0999605
0.0975706
0.0949341
0.0925955
0.0910044
0.0904977
0.091265
0.0932588
0.0961251
0.0991258
0.101391
0.102066
0.100622
0.09706
0.0919035
0.0859175
0.0799524
0.074677
0.0703802
0.0671592
0.0648908
0.0633381
0.0621931
0.0610357
0.0594932
0.0571773
0.0539155
0.0498726
0.0455024
0.0414869
0.0383479
0.0363831
0.0354192
0.0350225
0.0346928
0.0341251
0.0332859
0.032339
0.0315439
0.0311008
0.0308454
0.0305947
0.0299963
0.0287996
0.0269046
0.0241808
0.0206538
0.0164895
0.0119722
0.00757276
0.00391134
0.00144626
0.000386804
0.000623351
0.00158804
0.00261386
0.00311898
0.00286028
0.0020023
0.00103429
0.000543168
0.000918057
0.00218854
0.00406647
0.00595047
0.00714636
0.00713076
0.00567877
0.00294066
-0.00057087
-0.00419737
-0.00724924
-0.00935924
-0.0105498
-0.0111964
-0.0118153
-0.0129149
-0.0145802
-0.016456
-0.0178292
-0.017733
-0.0153798
-0.0102789
-0.00252623
0.00726284
0.0180245
0.0286518
0.0383324
0.0467482
0.054088
0.0608622
0.0676505
0.074616
0.0813291
0.086894
0.0902295
0.0904944
0.0875288
0.0817648
0.074226
0.0662976
0.0592972
0.0542919
0.0520098
0.0527529
0.0561969
0.0613296
0.0665363
0.0697615
0.0690768
0.0632056
0.0520404
0.0367939
0.0196343
0.00301887
-0.0109885
-0.0212113
-0.0276255
-0.0310045
-0.0325085
-0.0332706
-0.0340873
-0.0354985
-0.037838
-0.0411179
-0.0451433
-0.0495423
-0.0537826
-0.0572078
-0.059331
-0.0598676
-0.0589189
-0.0567258
-0.0536863
-0.0501379
-0.04641
-0.0429327
-0.0404999
-0.0405694
-0.0451511
-0.0564208
-0.0760158
-0.104155
-0.138534
-0.173564
-0.200518
-0.208525
-0.186442
-0.124945
-0.0186412
0.132559
0.322887
0.540607
0.768737
0.98576
1.16688
1.2865
1.32258
1.26215
1.10657
0.874013
0.597286
0.316904
0.0713222
-0.112227
-0.22349
-0.269245
-0.268131
-0.242758
-0.212356
-0.188697
-0.175627
-0.171463
-0.172306
-0.174657
-0.176643
-0.177938
-0.179119
-0.180678
-0.182727
-0.18487
-0.186543
-0.187212
-0.186635
-0.184934
-0.182568
-0.18014
-0.178136
-0.17689
-0.176241
-0.175798
-0.175127
-0.173903
-0.172027
-0.169693
-0.167278
-0.165145
-0.163462
-0.162164
-0.161068
-0.159961
-0.158714
-0.157324
-0.15604
-0.155113
-0.154687
-0.154788
-0.155226
-0.155709
-0.1559
-0.155618
-0.154771
-0.153453
-0.151921
-0.150254
-0.148501
-0.146694
-0.144658
-0.142339
-0.139846
-0.137432
-0.135483
-0.134308
-0.134116
-0.134922
-0.136536
-0.138645
-0.140935
-0.143292
-0.14565
-0.148188
-0.151059
-0.154351
-0.158033
-0.161893
-0.165634
-0.168989
-0.171928
-0.174528
-0.177079
-0.179892
-0.183222
-0.186948
-0.190788
-0.194003
-0.195761
-0.195176
-0.191466
-0.184177
-0.173108
-0.158361
-0.140254
-0.119404
-0.0966702
-0.0732267
-0.0504606
-0.0296984
-0.0120741
0.00179334
0.0120835
0.0196222
0.0256456
0.0314492
0.038117
0.0461122
0.0555036
0.0659056
0.0767027
0.0872474
0.0970056
0.105484
0.112356
0.117508
0.120963
0.122916
0.123737
0.123797
0.123364
0.122591
0.121499
0.120108
0.118416
0.116418
0.114122
0.111505
0.108556
0.10527
0.101804
0.0984004
0.095372
0.092905
0.0910001
0.0894107
0.0879101
0.0862538
0.0844166
0.0826151
0.0811165
0.0801403
0.079683
0.079572
0.079477
0.0791624
0.0784663
0.0774711
0.0763557
0.0752033
0.0739527
0.0723624
0.0701773
0.0672007
0.0634005
0.0590561
0.0545229
0.0501768
0.0461546
0.0425
0.0390754
0.0357569
0.0325183
0.0294761
0.0269088
0.0250964
0.0242572
0.0244057
0.0253475
0.0267273
0.0281028
0.029005
0.0292862
0.028924
0.0281476
0.0273199
0.0267704
0.0266965
0.0270379
0.0275608
0.0279441
0.0278867
0.0272021
0.0258819
0.0239947
0.0217037
0.019182
0.0165971
0.0140537
0.0116437
0.00935238
0.00709879
0.00478285
0.00232347
-0.00022014
-0.00257138
-0.00430844
-0.00495077
-0.00429273
-0.00244619
1.54593e-5
0.00234853
0.00397494
0.00473821
0.00505875
0.00578503
0.00795063
0.0123992
0.0193208
0.0282437
0.0382558
0.0481806
0.0570177
0.0642207
0.0697352
0.0739086
0.0773018
0.0803279
0.08313
0.0855037
0.0869377
0.0869566
0.0852063
0.0817544
0.0770594
0.07195
0.0674235
0.0644853
0.0638718
0.0659847
0.070492
0.0764781
0.0823792
0.0862242
0.08637
0.0817773
0.0722579
0.0587738
0.042982
0.0267249
0.0116326
-0.00141442
-0.0122672
-0.021187
-0.0286414
-0.0350405
-0.0405535
-0.0452394
-0.049028
-0.0518639
-0.0536966
-0.0545232
-0.0544753
-0.0536759
-0.0523517
-0.0508132
-0.0493
-0.0480451
-0.0470658
-0.046292
-0.045755
-0.0456427
-0.046401
-0.049083
-0.0552657
-0.0668172
-0.0854865
-0.112105
-0.145795
-0.183438
-0.219529
-0.246809
-0.257571
-0.245187
-0.204797
-0.132984
-0.0271103
0.114768
0.292333
0.499809
0.722372
0.934291
1.10124
1.188
1.16922
1.03956
0.818135
0.544706
0.268528
0.0340972
-0.130708
-0.219777
-0.246179
-0.233537
-0.206095
-0.181205
-0.166551
-0.16202
-0.163569
-0.166925
-0.169406
-0.170223
-0.169847
-0.169036
-0.168209
-0.167379
-0.166477
-0.165514
-0.164578
-0.163805
-0.163405
-0.163459
-0.164007
-0.164886
-0.165838
-0.166472
-0.166303
-0.164979
-0.162396
-0.158713
-0.154348
-0.149826
-0.145703
-0.142214
-0.13944
-0.137222
-0.135294
-0.133379
-0.131215
-0.128722
-0.125895
-0.122854
-0.119767
-0.116859
-0.114281
-0.112157
-0.11056
-0.109391
-0.108517
-0.107908
-0.107533
-0.107479
-0.108057
-0.109612
-0.11228
-0.116038
-0.12047
-0.12489
-0.128441
-0.130511
-0.130812
-0.129398
-0.126666
-0.123202
-0.119492
-0.115937
-0.112811
-0.110334
-0.108626
-0.107718
-0.107601
-0.108245
-0.109451
-0.111269
-0.113821
-0.117175
-0.121412
-0.126369
-0.131621
-0.136458
-0.140296
-0.142577
-0.143017
-0.141521
-0.137987
-0.132122
-0.123509
-0.111769
-0.0967698
-0.07888
-0.0590445
-0.0385872
-0.0188857
-0.000978991
0.0146408
0.0280391
0.0397948
0.0505415
0.0607499
0.0705622
0.0797968
0.0878908
0.0943309
0.0987196
0.101108
0.10182
0.101492
0.100781
0.100135
0.0998066
0.0997726
0.0998611
0.099977
0.100113
0.100329
0.10078
0.101551
0.102704
0.104108
0.105602
0.106989
0.108081
0.108578
0.10831
0.107126
0.10508
0.102269
0.0990429
0.0957399
0.0926573
0.0898743
0.0872435
0.0845368
0.081544
0.0782325
0.0746806
0.0711605
0.0679609
0.0652026
0.0628572
0.0607875
0.0588095
0.0567994
0.0546985
0.052665
0.0507739
0.049078
0.0474606
0.0457627
0.0437539
0.0411894
0.0379285
0.0340556
0.0297636
0.0253233
0.0211227
0.0174006
0.0144211
0.012256
0.0107875
0.0097817
0.00896915
0.00808196
0.00698742
0.00580153
0.00474977
0.00402632
0.00385469
0.00418699
0.0048372
0.00542644
0.00560324
0.00498209
0.00339946
0.000780341
-0.00271915
-0.00664408
-0.0104096
-0.0133545
-0.0149748
-0.0149575
-0.0134754
-0.0109911
-0.00820208
-0.00581115
-0.00427259
-0.0038246
-0.00429199
-0.00530428
-0.00636914
-0.00710684
-0.0072588
-0.00672362
-0.00566294
-0.00426473
-0.00270669
-0.000917917
0.00125693
0.00421987
0.00830246
0.0137255
0.0204052
0.0279696
0.0359223
0.043785
0.0512007
0.0580865
0.0644513
0.0704886
0.0762768
0.0819124
0.0873966
0.0926945
0.0975754
0.101575
0.104185
0.104831
0.103178
0.0992449
0.0934169
0.0863738
0.0788934
0.0716619
0.0653508
0.0605243
0.057762
0.0573981
0.0592369
0.0624184
0.0652848
0.065907
0.0626362
0.0545185
0.0418272
0.0257425
0.00820489
-0.00868888
-0.0232119
-0.0343765
-0.0418993
-0.0460951
-0.0478581
-0.048144
-0.0479828
-0.0482742
-0.0495763
-0.0520839
-0.0556091
-0.0597621
-0.0639997
-0.0677198
-0.0703673
-0.0714684
-0.0707664
-0.0683591
-0.0646366
-0.0605697
-0.0576598
-0.0580168
-0.0640022
-0.0776064
-0.0999294
-0.130265
-0.165586
-0.200041
-0.225428
-0.232384
-0.211693
-0.156134
-0.061335
0.0735281
0.245168
0.445852
0.662618
0.876741
1.064
1.19699
1.25021
1.20694
1.06603
0.84495
0.57742
0.305546
0.0689622
-0.105039
-0.207323
-0.246247
-0.241777
-0.217096
-0.19087
-0.173455
-0.167154
-0.169038
-0.174596
-0.180119
-0.18389
-0.185772
-0.186518
-0.18697
-0.187661
-0.188828
-0.190462
-0.192301
-0.19386
-0.194525
-0.193837
-0.191506
-0.187678
-0.182791
-0.17745
-0.172247
-0.167546
-0.163567
-0.160252
-0.157387
-0.154769
-0.152162
-0.149507
-0.146884
-0.144493
-0.142648
-0.141633
-0.141715
-0.14283
-0.144724
-0.146916
-0.148829
-0.149969
-0.150029
-0.148973
-0.146985
-0.144361
-0.141417
-0.138463
-0.135584
-0.132882
-0.130369
-0.128058
-0.125966
-0.124112
-0.122531
-0.121282
-0.120445
-0.120201
-0.1206
-0.121712
-0.123449
-0.125578
-0.127752
-0.12969
-0.131109
-0.131992
-0.132369
-0.132397
-0.132165
-0.131769
-0.131264
-0.130788
-0.130584
-0.130861
-0.131827
-0.133467
-0.135509
-0.13751
-0.138882
-0.139176
-0.138092
-0.135294
-0.130603
-0.123657
-0.114346
-0.102705
-0.0891033
-0.0743239
-0.0593524
-0.0451806
-0.0325553
-0.021655
-0.0122693
-0.00373311
0.00470593
0.0137137
0.0235476
0.0341998
0.0452784
0.0562133
0.0663753
0.0753546
0.0828509
0.0888597
0.0933396
0.0964124
0.0982678
0.0990252
0.098962
0.0982295
0.0971877
0.0960763
0.0951053
0.0943185
0.0936718
0.0929683
0.0919645
0.0904661
0.0884676
0.0860291
0.0832971
0.0804207
0.0776456
0.0751156
0.0730113
0.0715698
0.0709276
0.0710295
0.0715795
0.0720289
0.0718795
0.0707196
0.0685186
0.0655633
0.0623388
0.0593525
0.0568264
0.0548332
0.053165
0.0517876
0.0505479
0.0495644
0.0489187
0.0485119
0.0479157
0.0466273
0.0441893
0.0404325
0.035582
0.0302103
0.0249821
0.0204357
0.0167393
0.0137286
0.0110917
0.00855317
0.00602392
0.00365157
0.00163575
0.000334723
-0.000183756
5.7973e-5
0.00090993
0.00201737
0.00309948
0.00368945
0.0036284
0.00288145
0.00164601
0.000280299
-0.000800499
-0.0013455
-0.00134551
-0.0010627
-0.00100702
-0.00163916
-0.00322029
-0.00571513
-0.0087596
-0.0118004
-0.014361
-0.0161482
-0.0171777
-0.0177349
-0.0181062
-0.0186861
-0.0195491
-0.0206073
-0.0215869
-0.0221037
-0.0219776
-0.0210584
-0.0194662
-0.0175311
-0.0156467
-0.0142705
-0.0136756
-0.0138551
-0.014581
-0.0153005
-0.0153292
-0.0140262
-0.0109212
-0.00595416
0.000567417
0.00800627
0.0155443
0.022422
0.0281203
0.0325375
0.0358395
0.0385242
0.0410003
0.0435171
0.0459101
0.0476047
0.0479233
0.0463605
0.0429666
0.038516
0.0342963
0.0317241
0.0317028
0.0340753
0.0377946
0.0410643
0.0423437
0.040945
0.0374149
0.0330895
0.029461
0.0271729
0.0257546
0.0237091
0.0192961
0.0114666
0.000398699
-0.0124164
-0.0246729
-0.0342972
-0.0400025
-0.041634
-0.0400095
-0.0364827
-0.0324086
-0.0288712
-0.0266353
-0.0261301
-0.0274334
-0.0301884
-0.0337316
-0.0369951
-0.0389574
-0.0389747
-0.0370566
-0.0339626
-0.0312491
-0.0309219
-0.035072
-0.0455373
-0.0634875
-0.0891837
-0.121382
-0.156792
-0.189785
-0.212136
-0.213594
-0.182862
-0.109653
0.0122409
0.181373
0.385735
0.601793
0.79697
0.93588
0.989298
0.942873
0.802531
0.594106
0.35679
0.132148
-0.0466665
-0.162658
-0.216358
-0.221805
-0.199212
-0.167632
-0.139984
-0.121838
-0.113198
-0.111273
-0.112951
-0.116128
-0.119809
-0.123674
-0.127515
-0.131008
-0.133823
-0.135669
-0.136574
-0.136751
-0.136468
-0.135933
-0.135193
-0.134196
-0.132736
-0.130544
-0.127593
-0.123901
-0.119726
-0.115437
-0.111391
-0.107873
-0.105001
-0.102697
-0.100788
-0.0991324
-0.0978519
-0.0971318
-0.0972635
-0.0985096
-0.100809
-0.1037
-0.106323
-0.107852
-0.107517
-0.10501
-0.100694
-0.095327
-0.0900581
-0.0857734
-0.0829618
-0.0816041
-0.081138
-0.080817
-0.0799687
-0.078259
-0.0757986
-0.0729771
-0.0703673
-0.0684701
-0.0676652
-0.0681074
-0.0696998
-0.0721532
-0.0749851
-0.0775311
-0.0791489
-0.0794411
-0.0784056
-0.0764221
-0.0742618
-0.0726707
-0.0722016
-0.0731574
-0.0752981
-0.0783549
-0.0820328
-0.0861216
-0.0906535
-0.0957614
-0.101413
-0.107383
-0.113212
-0.118215
-0.121653
-0.122882
-0.121493
-0.117311
-0.11043
-0.101089
-0.0897358
-0.0770881
-0.0640512
-0.0515117
-0.0402765
-0.0308233
-0.0229985
-0.0162973
-0.00989682
-0.0030309
0.00471013
0.0134229
0.0227265
0.0320861
0.0409796
0.0491048
0.0562673
0.0624539
0.067714
0.0720312
0.0754783
0.0781958
0.0804338
0.0826111
0.0852967
0.0889
0.093634
0.0992847
0.105234
0.110509
0.114113
0.115327
0.113892
0.110228
0.105185
0.100022
0.0957485
0.0929983
0.091852
0.0918913
0.0923214
0.0923872
0.0915995
0.0897471
0.0869545
0.0834758
0.0794319
0.0748399
0.0695593
0.0636056
0.0572507
0.0511904
0.0462802
0.0433609
0.0428206
0.0443184
0.0469805
0.0495799
0.0510463
0.0508974
0.0493521
0.0470642
0.0448896
0.0434272
0.0427239
0.0423323
0.041585
0.0398826
0.0369785
0.0331435
0.0291099
0.025899
0.0243986
0.0249808
0.0275565
0.0311894
0.0346968
0.0367433
0.0362743
0.0328347
0.0265892
0.0183639
0.00918406
0.000248888
-0.00749231
-0.0134882
-0.0174589
-0.0194427
-0.0196479
-0.0184474
-0.0161737
-0.013204
-0.00994457
-0.00684741
-0.00438172
-0.0029266
-0.00274854
-0.00390925
-0.00611761
-0.00888651
-0.0116305
-0.0137024
-0.014852
-0.0151937
-0.0151847
-0.0155351
-0.0167846
-0.019062
-0.0218801
-0.0244623
-0.0258702
-0.0254105
-0.023007
-0.0191657
-0.0147236
-0.0107001
-0.00788624
-0.00680597
-0.00750216
-0.00967774
-0.0127257
-0.0159277
-0.0185083
-0.0198494
-0.0196289
-0.0178625
-0.0148555
-0.0111465
-0.0071834
-0.00317845
0.000883754
0.00528074
0.010209
0.0158035
0.0219511
0.0284434
0.0350077
0.0414231
0.0476901
0.0538908
0.0600184
0.0662132
0.0723299
0.0781823
0.0834276
0.0876797
0.0904992
0.091608
0.0908871
0.088554
0.085061
0.0810074
0.0769145
0.0731391
0.0697077
0.0663782
0.0627902
0.0586823
0.0542939
0.0502572
0.047374
0.0463846
0.0473885
0.0496356
0.0515307
0.0511549
0.046981
0.0382371
0.0254554
0.0101016
-0.00588557
-0.0206383
-0.0328283
-0.0417477
-0.0472297
-0.0497329
-0.0499255
-0.0487736
-0.0473995
-0.0467709
-0.047582
-0.0500143
-0.0535613
-0.0572507
-0.0599478
-0.0608622
-0.0596486
-0.0567907
-0.0532087
-0.0501432
-0.0484872
-0.0485303
-0.0498766
-0.0516407
-0.0529488
-0.0533488
-0.0532642
-0.0540419
-0.0576045
-0.0660714
-0.0810537
-0.103095
-0.13121
-0.162484
-0.191882
-0.212646
-0.216714
-0.195348
-0.140091
-0.0440394
0.0961119
0.277357
0.488011
0.706541
0.902747
1.04297
1.09787
1.05133
0.90671
0.687881
0.433653
0.187374
-0.0145735
-0.151519
-0.221382
-0.237433
-0.22102
-0.193102
-0.168491
-0.153769
-0.148661
-0.149478
-0.151982
-0.153383
-0.152789
-0.150699
-0.148183
-0.145968
-0.144337
-0.143253
-0.142417
-0.141487
-0.140215
-0.138457
-0.136214
-0.133573
-0.130659
-0.127633
-0.124667
-0.121929
-0.119507
-0.117456
-0.115678
-0.114043
-0.112399
-0.110497
-0.108404
-0.106166
-0.104008
-0.102266
-0.101156
-0.100688
-0.100652
-0.100687
-0.100529
-0.100072
-0.0994782
-0.0991219
-0.0994162
-0.100574
-0.102494
-0.104856
-0.107247
-0.109332
-0.110766
-0.111348
-0.110942
-0.109361
-0.106509
-0.102515
-0.0978404
-0.0931748
-0.0892898
-0.0868413
-0.0861606
-0.0871003
-0.0891707
-0.0916531
-0.0939297
-0.0956096
-0.0965662
-0.0970045
-0.0972945
-0.0978492
-0.098923
-0.100767
-0.103406
-0.106742
-0.110628
-0.114763
-0.118968
-0.123054
-0.126874
-0.13038
-0.13363
-0.1366
-0.139118
-0.140902
-0.141431
-0.140084
-0.136286
-0.129705
-0.120355
-0.108735
-0.0955738
-0.0817991
-0.0682105
-0.0552007
-0.0428555
-0.0308719
-0.0188115
-0.0061877
0.00726764
0.0215609
0.0364808
0.0515385
0.0661995
0.0799051
0.0921616
0.102656
0.111303
0.118068
0.123161
0.126839
0.129336
0.130935
0.131735
0.131812
0.131132
0.129693
0.127559
0.124973
0.122324
0.119986
0.118324
0.117468
0.117277
0.117511
0.117823
0.117974
0.11787
0.117649
0.117462
0.117502
0.117853
0.118319
0.118533
0.118181
0.116941
0.114722
0.111707
0.108198
0.104624
0.101261
0.0981402
0.0951245
0.0918816
0.088172
0.0838662
0.0790736
0.0741071
0.0693314
0.065135
0.0616961
0.059096
0.0572588
0.0560056
0.055223
0.0548064
0.0546455
0.0545133
0.0542254
0.0534997
0.0521619
0.0501763
0.0476223
0.0447057
0.0417416
0.0390288
0.0367994
0.0352644
0.0344279
0.0342553
0.0345017
0.0347771
0.0345571
0.0333551
0.0308157
0.0268843
0.0218795
0.0164427
0.0113148
0.0073032
0.00481791
0.00399579
0.00457298
0.00601801
0.00771048
0.00916814
0.0100141
0.0100315
0.00919624
0.00775621
0.00600167
0.0043302
0.00299271
0.00222737
0.00206694
0.00242027
0.00303573
0.00362734
0.00393286
0.00369443
0.00276967
0.00113468
-0.000936558
-0.00314212
-0.00512978
-0.0066248
-0.00752071
-0.00794686
-0.00811483
-0.00806449
-0.00768169
-0.00658458
-0.00434261
-0.000521784
0.00519359
0.0127856
0.0220246
0.0322963
0.0428819
0.052928
0.0617002
0.0686607
0.0736786
0.0770782
0.0793695
0.0812501
0.0833727
0.0861316
0.0894927
0.093115
0.0965175
0.0990959
0.100289
0.0998126
0.0976669
0.0940919
0.0895041
0.0844427
0.0795243
0.0754209
0.0727729
0.0722295
0.0740944
0.0781748
0.0836116
0.0887145
0.091565
0.0904168
0.0843181
0.073327
0.0587634
0.0425257
0.0265902
0.0125193
0.00108853
-0.00757674
-0.0139031
-0.018478
-0.0218717
-0.0247253
-0.0275877
-0.0309257
-0.0349701
-0.0396226
-0.0444792
-0.0488812
-0.0521796
-0.053975
-0.0542238
-0.0532683
-0.0516002
-0.0495729
-0.0473546
-0.0450011
-0.0426197
-0.040611
-0.0400087
-0.042426
-0.049749
-0.0637007
-0.0852237
-0.113975
-0.147827
-0.182492
-0.211385
-0.22612
-0.217327
-0.175598
-0.093
0.0353261
0.209311
0.422312
0.660119
0.900957
1.11752
1.28091
1.3659
1.35676
1.25149
1.06304
0.816813
0.545174
0.280643
0.0498979
-0.130103
-0.253061
-0.321924
-0.345903
-0.337237
-0.308681
-0.271649
-0.235049
-0.204631
-0.1832
-0.170833
-0.165923
-0.166058
-0.168905
-0.172864
-0.176905
-0.180606
-0.183796
-0.18626
-0.187784
-0.188303
-0.187841
-0.186603
-0.1848
-0.182534
-0.179805
-0.176586
-0.172895
-0.168915
-0.164994
-0.161535
-0.158896
-0.157236
-0.156349
-0.155939
-0.155542
-0.154727
-0.153315
-0.151255
-0.148784
-0.146181
-0.14382
-0.141989
-0.140898
-0.140558
-0.140819
-0.141372
-0.141891
-0.141911
-0.141122
-0.13941
-0.136892
-0.133878
-0.130869
-0.128253
-0.126311
-0.125225
-0.124865
-0.124951
-0.125294
-0.125666
-0.125887
-0.12602
-0.126188
-0.126569
-0.12735
-0.128504
-0.130033
-0.13177
-0.133494
-0.135121
-0.13661
-0.138045
-0.139535
-0.141214
-0.143078
-0.145084
-0.147068
-0.148806
-0.150023
-0.150409
-0.149647
-0.147375
-0.143254
-0.137038
-0.128505
-0.117572
-0.104429
-0.089404
-0.0730726
-0.0562379
-0.0397943
-0.0248214
-0.0121793
-0.00250265
0.00397238
0.00763468
0.00925849
0.0099296
0.0107745
0.0127149
0.0162864
0.0216831
0.028832
0.0374305
0.0471955
0.0576457
0.0683301
0.0787956
0.0885952
0.0972736
0.104661
0.110726
0.115639
0.119597
0.122861
0.125511
0.127524
0.128811
0.129208
0.128676
0.127284
0.125161
0.122544
0.119652
0.116684
0.11365
0.11056
0.107459
0.104349
0.101229
0.0981158
0.095135
0.0922841
0.0895233
0.0868235
0.0842037
0.0816498
0.0793059
0.0772437
0.0755246
0.0740788
0.0727981
0.071504
0.0700704
0.0685133
0.0667741
0.0648551
0.0626778
0.0601147
0.0570199
0.0532802
0.0489798
0.0443286
0.0395927
0.0350615
0.0310603
0.0277646
0.0252343
0.0235038
0.0225042
0.0220166
0.0218563
0.0218257
0.021673
0.0212704
0.0205998
0.0196996
0.0186485
0.0175806
0.0165213
0.0153995
0.0141712
0.0127107
0.0110377
0.00927281
0.00760233
0.00619923
0.00506499
0.00406825
0.00289584
0.00130863
-0.000834116
-0.00333302
-0.00575569
-0.00761346
-0.00840624
-0.00800379
-0.00654792
-0.00453088
-0.00247995
-0.000817944
0.00028026
0.000844978
0.00109831
0.00128026
0.00152446
0.00188122
0.00224225
0.00248322
0.00240493
0.0018466
0.000710989
-0.000905493
-0.00255047
-0.00362649
-0.00316928
-0.000461237
0.00492339
0.0127539
0.0222756
0.0323794
0.041948
0.050346
0.0574581
0.0637239
0.0698446
0.0764144
0.0835668
0.090944
0.097725
0.102873
0.105607
0.105569
0.10295
0.0983648
0.0927887
0.0871646
0.0823214
0.0788962
0.0771725
0.0772605
0.07877
0.0809736
0.0828007
0.0829673
0.0802614
0.0739776
0.0640202
0.051032
0.0362531
0.0212145
0.00731641
-0.00431867
-0.0132309
-0.0194883
-0.0235185
-0.0260153
-0.0276876
-0.0291208
-0.0306639
-0.0323096
-0.033953
-0.0354266
-0.0366663
-0.0378097
-0.0390694
-0.040735
-0.0428644
-0.0452989
-0.0477845
-0.0499645
-0.0515528
-0.0524928
-0.0527925
-0.0526716
-0.052501
-0.0526954
-0.0538667
-0.0570457
-0.0635447
-0.0748628
-0.0924131
-0.116837
-0.147589
-0.182044
-0.215162
-0.239449
-0.245635
-0.22329
-0.162264
-0.0546969
0.102375
0.304139
0.535417
0.770211
0.974295
1.11162
1.15325
1.08643
0.919842
0.682999
0.4188
0.171787
-0.0235437
-0.150455
-0.211132
-0.221947
-0.205108
-0.180682
-0.161349
-0.151613
-0.150024
-0.152635
-0.155659
-0.157105
-0.156647
-0.154942
-0.152965
-0.151343
-0.150223
-0.149446
-0.148598
-0.147321
-0.145308
-0.142528
-0.139068
-0.135293
-0.131572
-0.128202
-0.125452
-0.123424
-0.122216
-0.121798
-0.121996
-0.122583
-0.123201
-0.123542
-0.123326
-0.122443
-0.120927
-0.118837
-0.11635
-0.11366
-0.11088
-0.108097
-0.105361
-0.102688
-0.100109
-0.0976435
-0.0953442
-0.0932058
-0.091261
-0.089503
-0.0879635
-0.086641
-0.0855833
-0.0848523
-0.0844032
-0.0841112
-0.0838547
-0.0834152
-0.0827098
-0.0818348
-0.0810644
-0.0807865
-0.0813158
-0.0828679
-0.0852989
-0.0882375
-0.0910593
-0.0931593
-0.0942212
-0.0941332
-0.0932453
-0.0921072
-0.0912477
-0.0910579
-0.0917735
-0.0932927
-0.0953814
-0.0978768
-0.100515
-0.103186
-0.105795
-0.108229
-0.110182
-0.111294
-0.11105
-0.108968
-0.104595
-0.0976501
-0.088219
-0.0767401
-0.0639596
-0.05089
-0.0385746
-0.027835
-0.0190574
-0.0121784
-0.00660953
-0.00147239
0.00405405
0.0105291
0.0181695
0.0267844
0.0359123
0.0450815
0.0538945
0.0621038
0.0695617
0.0762681
0.082189
0.0873665
0.0917584
0.0954488
0.0984512
0.100797
0.102527
0.103736
0.104447
0.104783
0.104843
0.104624
0.104197
0.103546
0.102515
0.100948
0.0986035
0.0953853
0.0912679
0.0864433
0.0813073
0.07639
0.072174
0.0690508
0.067155
0.0663178
0.0661464
0.0662667
0.06633
0.0660911
0.0655124
0.0645558
0.0632177
0.061463
0.0592538
0.0565875
0.0535916
0.0505278
0.0475767
0.0448227
0.0423324
0.0399052
0.0374283
0.0347306
0.0318056
0.0286995
0.0255208
0.0223649
0.0193529
0.0165076
0.0137546
0.0110365
0.00836765
0.00570252
0.00313872
0.000852433
-0.00100965
-0.00239634
-0.00338381
-0.00415562
-0.0048874
-0.00572748
-0.00674397
-0.00786588
-0.00894796
-0.00993699
-0.010896
-0.0118693
-0.0130937
-0.0146497
-0.0165813
-0.018762
-0.0209087
-0.0226057
-0.0236212
-0.0237891
-0.0231804
-0.0221208
-0.0210178
-0.0201939
-0.0198032
-0.0198258
-0.0200491
-0.0201303
-0.0197927
-0.0189934
-0.0178994
-0.0168149
-0.0160399
-0.0158221
-0.0161893
-0.0169408
-0.0178532
-0.0187506
-0.0196524
-0.0207049
-0.022035
-0.0235019
-0.0246867
-0.024916
-0.023305
-0.0192564
-0.0125497
-0.00342539
0.0073762
0.0188495
0.0299331
0.0397063
0.0476492
0.0536137
0.057878
0.0611905
0.0644458
0.0684724
0.073674
0.0799614
0.0866309
0.0926409
0.0970266
0.099026
0.0985311
0.0958763
0.0917114
0.0867185
0.0814632
0.0764887
0.0722406
0.0692246
0.0678475
0.0680403
0.0691603
0.0700322
0.069185
0.0653344
0.0578107
0.0467487
0.0331216
0.0182298
0.0035154
-0.00986002
-0.0210382
-0.0296164
-0.0354218
-0.0386339
-0.0397573
-0.0394935
-0.038747
-0.0382883
-0.0386162
-0.0398406
-0.0417574
-0.0440886
-0.0465286
-0.0489463
-0.0514655
-0.0542233
-0.0572106
-0.0602051
-0.0626933
-0.0639567
-0.063452
-0.0610065
-0.0570077
-0.0525873
-0.0496254
-0.0504706
-0.0575925
-0.072833
-0.0970292
-0.129305
-0.166555
-0.203204
-0.231435
-0.242045
-0.225218
-0.171687
-0.0743697
0.0695452
0.255994
0.471634
0.693076
0.888699
1.02414
1.07062
1.01379
0.859725
0.635144
0.381102
0.141593
-0.0481871
-0.170206
-0.225531
-0.229965
-0.206116
-0.174843
-0.149776
-0.136058
-0.132439
-0.134882
-0.13935
-0.143344
-0.146031
-0.147453
-0.147852
-0.147391
-0.146055
-0.144019
-0.141602
-0.13923
-0.137303
-0.136095
-0.135698
-0.136054
-0.137074
-0.138559
-0.140334
-0.142127
-0.143671
-0.144639
-0.1448
-0.143982
-0.142087
-0.13907
-0.135101
-0.130428
-0.125494
-0.120779
-0.116783
-0.113747
-0.111682
-0.110324
-0.109276
-0.108146
-0.106734
-0.105147
-0.103634
-0.102623
-0.102471
-0.103331
-0.105163
-0.107681
-0.11041
-0.1129
-0.114743
-0.115801
-0.116168
-0.116021
-0.115578
-0.114849
-0.113579
-0.111428
-0.108073
-0.103401
-0.0977035
-0.0916008
-0.0858792
-0.0811979
-0.0779976
-0.0763365
-0.0760787
-0.0769028
-0.0786514
-0.0811607
-0.0843955
-0.0882962
-0.0927066
-0.0974389
-0.102305
-0.107141
-0.111835
-0.116221
-0.119989
-0.122673
-0.123599
-0.122109
-0.117719
-0.110231
-0.0998987
-0.0874125
-0.0737523
-0.0600962
-0.047549
-0.0369792
-0.0288594
-0.023153
-0.0192874
-0.016264
-0.0128487
-0.00802432
-0.00112494
0.0076659
0.0175513
0.0272864
0.0356052
0.0417716
0.0458036
0.0483085
0.0503427
0.0527657
0.0560628
0.0601419
0.0645383
0.0687088
0.0723477
0.0754424
0.0782043
0.0809033
0.0835791
0.0859848
0.0876936
0.0882209
0.087311
0.0848898
0.0813448
0.0771182
0.0727234
0.0686383
0.065058
0.0620293
0.0594531
0.0570704
0.0546527
0.0520883
0.0494315
0.046959
0.0450677
0.0440771
0.0441438
0.0450406
0.046282
0.0471708
0.047094
0.0456193
0.042748
0.0387248
0.0339956
0.0290709
0.0243312
0.0201223
0.0164354
0.0132761
0.0104578
0.00771163
0.00486375
0.00166856
-0.00189063
-0.00566846
-0.0091861
-0.0118404
-0.0131995
-0.0130263
-0.0116162
-0.00962816
-0.00799131
-0.00744664
-0.00840025
-0.0107951
-0.0141521
-0.0177813
-0.0211884
-0.023937
-0.0258837
-0.02707
-0.0275963
-0.0276369
-0.027409
-0.0272218
-0.0273942
-0.0281376
-0.029504
-0.0312177
-0.0329365
-0.0340934
-0.0344423
-0.0339712
-0.0328369
-0.0314421
-0.0300622
-0.0288024
-0.0274805
-0.0259319
-0.0240298
-0.0218662
-0.0196735
-0.0176117
-0.0155933
-0.0133802
-0.0105319
-0.00685668
-0.00247596
0.00208366
0.00609426
0.0089302
0.010493
0.0111134
0.0116333
0.0130015
0.0160123
0.0209663
0.0277786
0.0358281
0.0442389
0.0521267
0.0586601
0.0632565
0.0656296
0.0658504
0.0642144
0.0612822
0.0576922
0.0540033
0.0507008
0.0481243
0.0463519
0.0452384
0.044175
0.042248
0.0384284
0.0318582
0.0221734
0.00987529
-0.00386983
-0.0176072
-0.0297774
-0.039438
-0.0464086
-0.050929
-0.0536551
-0.0552316
-0.0561374
-0.0566111
-0.0568504
-0.0568709
-0.0567408
-0.0565685
-0.0564968
-0.0568033
-0.0577724
-0.0596542
-0.062477
-0.065953
-0.0693888
-0.0720377
-0.0733112
-0.0729935
-0.0714982
-0.069781
-0.0692241
-0.0712827
-0.0775457
-0.0892587
-0.107174
-0.131092
-0.158891
-0.185898
-0.204391
-0.203657
-0.171163
-0.0953144
0.0308315
0.205461
0.414662
0.631902
0.821505
0.946485
0.978432
0.906518
0.741971
0.516014
0.271222
0.0498349
-0.11742
-0.217685
-0.255825
-0.248979
-0.21855
-0.183005
-0.153816
-0.135187
-0.12631
-0.124088
-0.125337
-0.127919
-0.130789
-0.133548
-0.135986
-0.138004
-0.139666
-0.141138
-0.142572
-0.144094
-0.145569
-0.146552
-0.146494
-0.144998
-0.141944
-0.137576
-0.132374
-0.126925
-0.12165
-0.11672
-0.112146
-0.108017
-0.10461
-0.102412
-0.101866
-0.103191
-0.106114
-0.109856
-0.113334
-0.115431
-0.115485
-0.113517
-0.110183
-0.106603
-0.103945
-0.102886
-0.103503
-0.10525
-0.107104
-0.10813
-0.107617
-0.105544
-0.102385
-0.0989382
-0.0959421
-0.0939359
-0.0930095
-0.0929012
-0.0931697
-0.0933926
-0.0933267
-0.09291
-0.092264
-0.0914813
-0.0905179
-0.0893461
-0.0877846
-0.0857201
-0.0832582
-0.0807221
-0.0786668
-0.0777727
-0.0785932
-0.0814808
-0.0864281
-0.0930315
-0.100675
-0.108558
-0.11613
-0.122993
-0.129064
-0.13432
-0.138731
-0.14209
-0.144032
-0.144082
-0.141801
-0.13696
-0.12961
-0.120081
-0.108904
-0.0966366
-0.0837843
-0.070742
-0.0577112
-0.0448052
-0.0319724
-0.0191912
-0.00649042
0.00613221
0.0185261
0.0305862
0.0422769
0.0535402
0.0643889
0.0748461
0.0848963
0.0943436
0.10296
0.110507
0.116822
0.121927
0.126007
0.129298
0.132102
0.134538
0.136575
0.138133
0.139004
0.139053
0.138152
0.13629
0.133467
0.129811
0.125552
0.121017
0.116611
0.11271
0.109526
0.107221
0.105774
0.1051
0.10494
0.10514
0.105431
0.105569
0.105281
0.104322
0.102512
0.0998411
0.0963444
0.0922132
0.0876778
0.0829489
0.0781914
0.0735172
0.0689528
0.0645749
0.0604566
0.0568034
0.0538246
0.0516644
0.0503281
0.0496707
0.0493816
0.0490005
0.0481894
0.0467456
0.0447694
0.0425224
0.0404918
0.0390483
0.0384648
0.0386857
0.0394763
0.0403769
0.040859
0.0404274
0.0387634
0.0357796
0.0316401
0.0268926
0.0222662
0.0185199
0.0163472
0.0159564
0.0171199
0.0192317
0.0214318
0.0228876
0.0231601
0.0222082
0.0203947
0.0182827
0.0163795
0.0149264
0.0137977
0.0126955
0.0112723
0.00933468
0.00692532
0.00414038
0.0011247
-0.00203068
-0.00525199
-0.00842847
-0.0110987
-0.0126693
-0.0123149
-0.00934795
-0.0035534
0.00473524
0.0147414
0.0253695
0.0357291
0.045324
0.0540808
0.0622833
0.0703509
0.0783865
0.086135
0.0929841
0.0981683
0.10107
0.101314
0.098961
0.0943814
0.0882527
0.0814177
0.0748616
0.0696522
0.0667188
0.0664532
0.0684628
0.0715041
0.0737022
0.0730673
0.0680872
0.0582653
0.0442658
0.0276222
0.0104063
-0.00538301
-0.0182546
-0.027478
-0.0329696
-0.0352075
-0.0350162
-0.0333721
-0.0313095
-0.0296116
-0.0288254
-0.02937
-0.0314292
-0.0349851
-0.0398202
-0.0455483
-0.051606
-0.0572502
-0.0615884
-0.0637433
-0.0632585
-0.0600931
-0.0548392
-0.0487674
-0.0435929
-0.0412615
-0.0437578
-0.0527429
-0.0693581
-0.0939499
-0.125911
-0.163298
-0.202142
-0.236324
-0.257435
-0.255264
-0.218485
-0.136386
-0.0019022
0.184665
0.412237
0.656979
0.883897
1.05298
1.12897
1.09198
0.945295
0.716013
0.448394
0.191368
-0.0151952
-0.149922
-0.212676
-0.219983
-0.195973
-0.163269
-0.136662
-0.121683
-0.11715
-0.118881
-0.122937
-0.127042
-0.130685
-0.134271
-0.138171
-0.142186
-0.145684
-0.14796
-0.148468
-0.147082
-0.144078
-0.13996
-0.135418
-0.130909
-0.126814
-0.123278
-0.120177
-0.117454
-0.11504
-0.112931
-0.111194
-0.109771
-0.108585
-0.107442
-0.106187
-0.104713
-0.103188
-0.101804
-0.100773
-0.100145
-0.0996903
-0.0989512
-0.0974642
-0.0948591
-0.091277
-0.0871605
-0.083108
-0.0797509
-0.0773318
-0.0758369
-0.0749373
-0.0742484
-0.0735236
-0.0726769
-0.0717608
-0.07089
-0.0700255
-0.0690715
-0.0678461
-0.0662396
-0.0643544
-0.0625513
-0.061323
-0.0611739
-0.0624391
-0.0651721
-0.0691501
-0.0738886
-0.0788519
-0.083499
-0.087461
-0.0905819
-0.0930457
-0.095087
-0.0970482
-0.0992332
-0.101775
-0.104685
-0.107798
-0.110934
-0.113987
-0.11684
-0.119349
-0.121259
-0.122062
-0.121156
-0.117804
-0.111452
-0.101729
-0.0887337
-0.0729669
-0.0553238
-0.0368902
-0.0188753
-0.00211007
0.0127847
0.0257211
0.0369005
0.046853
0.0560853
0.0649798
0.0737456
0.0824089
0.0908257
0.0986934
0.105703
0.111505
0.115964
0.119042
0.120936
0.121934
0.122454
0.122744
0.122894
0.122739
0.122055
0.120577
0.118201
0.11497
0.111094
0.106816
0.102376
0.0980564
0.0941782
0.0910245
0.0887781
0.0875235
0.0870859
0.0871001
0.0870847
0.0866852
0.0857841
0.0845637
0.0833113
0.0822744
0.08158
0.0810803
0.0804784
0.0795043
0.077925
0.0756727
0.0727787
0.0693868
0.0657167
0.0619156
0.0582277
0.0547701
0.051769
0.0492266
0.04699
0.0447281
0.0420326
0.0385391
0.0340434
0.0287052
0.0229314
0.017354
0.0125305
0.00895876
0.00673885
0.00576228
0.0056957
0.00617943
0.00688934
0.00759459
0.00813682
0.00846245
0.00860466
0.00859054
0.00848234
0.00837676
0.00832797
0.00819819
0.00762612
0.00624659
0.00368235
-0.000221822
-0.00530407
-0.0109743
-0.0163296
-0.0205219
-0.0229421
-0.023359
-0.0219947
-0.0194357
-0.0162918
-0.0131896
-0.0106284
-0.00895333
-0.00835747
-0.00885362
-0.0102374
-0.01211
-0.0139841
-0.0153201
-0.0158002
-0.0153132
-0.0141391
-0.0124898
-0.010413
-0.00773767
-0.00402111
0.00119137
0.00813528
0.0165123
0.025556
0.034242
0.041894
0.0482506
0.0537133
0.0590366
0.0650303
0.0720085
0.0796883
0.0871332
0.0932136
0.0968695
0.0976493
0.0957027
0.0916503
0.0863306
0.0804505
0.0744438
0.0687016
0.0636896
0.0602066
0.0593146
0.0618699
0.068038
0.0767419
0.0857273
0.0919924
0.0929281
0.0869462
0.0740971
0.055986
0.0352663
0.0145628
-0.00393782
-0.0190356
-0.0303947
-0.0383051
-0.0433648
-0.0463254
-0.0479063
-0.0487516
-0.04939
-0.0501405
-0.0511469
-0.0523846
-0.0537217
-0.0551297
-0.0566292
-0.0582701
-0.0600363
-0.0617045
-0.0629975
-0.0634481
-0.062939
-0.0617906
-0.0611472
-0.062951
-0.069637
-0.0835176
-0.106046
-0.13692
-0.173287
-0.209293
-0.236282
-0.243715
-0.220288
-0.155365
-0.0411315
0.124808
0.336626
0.577992
0.821677
1.03219
1.17212
1.21139
1.13623
0.954989
0.697846
0.409524
0.137777
-0.0790959
-0.220692
-0.286754
-0.293265
-0.264259
-0.223286
-0.18718
-0.16389
-0.154026
-0.153986
-0.159057
-0.16538
-0.170922
-0.175022
-0.177875
-0.179778
-0.180875
-0.181282
-0.181028
-0.180086
-0.178512
-0.176344
-0.173619
-0.170421
-0.166834
-0.163038
-0.159247
-0.155695
-0.152613
-0.150161
-0.148326
-0.146949
-0.145726
-0.144328
-0.142524
-0.140291
-0.1378
-0.135422
-0.133506
-0.132408
-0.132131
-0.132371
-0.132755
-0.13272
-0.131965
-0.130494
-0.128552
-0.126553
-0.124879
-0.123711
-0.122963
-0.122349
-0.121501
-0.120194
-0.118413
-0.116347
-0.114323
-0.112541
-0.111185
-0.110228
-0.109493
-0.108787
-0.107957
-0.107014
-0.106042
-0.105255
-0.104781
-0.104723
-0.10496
-0.105439
-0.106103
-0.106998
-0.10825
-0.110024
-0.112369
-0.115186
-0.118251
-0.121308
-0.124211
-0.126803
-0.129024
-0.130667
-0.13146
-0.131017
-0.128838
-0.124495
-0.117731
-0.108444
-0.0968016
-0.0832989
-0.0686957
-0.0539218
-0.0400307
-0.02795
-0.018262
-0.0111031
-0.0061521
-0.00268279
0.000145998
0.00312801
0.00680511
0.0113868
0.0167819
0.0227321
0.0290383
0.035422
0.0417712
0.0480236
0.0542298
0.0604239
0.0666728
0.0730571
0.0796278
0.0862931
0.0928537
0.0991068
0.104659
0.109258
0.112693
0.114954
0.116194
0.11665
0.116528
0.115875
0.114619
0.112602
0.10967
0.105858
0.101467
0.0969828
0.0928745
0.0896339
0.0874127
0.0861152
0.0854152
0.0848526
0.0840435
0.0827115
0.0807803
0.0784119
0.0758701
0.0733877
0.0712533
0.0695277
0.0681627
0.0671121
0.0661987
0.0652551
0.0641999
0.0629842
0.0615912
0.0600504
0.0583417
0.0564133
0.0542138
0.0516429
0.0486154
0.0450433
0.0409332
0.0362897
0.0312117
0.0258143
0.020256
0.0148001
0.00975751
0.00539936
0.00199535
-0.000349869
-0.00169914
-0.00221105
-0.00210295
-0.00167729
-0.00110944
-0.000503825
-3.17058e-5
0.00022853
0.000197075
-0.000329486
-0.00137701
-0.00287463
-0.0047249
-0.00662523
-0.00833474
-0.00967412
-0.0106481
-0.0114431
-0.0123524
-0.0135633
-0.0151399
-0.0168864
-0.0184322
-0.0194043
-0.0195896
-0.0188917
-0.0174835
-0.0157067
-0.0139001
-0.0124166
-0.0114514
-0.0110072
-0.010955
-0.0110853
-0.0112131
-0.011207
-0.0110628
-0.0109042
-0.0108623
-0.01109
-0.0114822
-0.0118676
-0.0119181
-0.0112309
-0.00946337
-0.00633032
-0.00168313
0.00443373
0.011724
0.0197378
0.0278562
0.0354405
0.0420031
0.0473061
0.0514521
0.0549935
0.0586051
0.0628783
0.0681803
0.0743494
0.0808518
0.0868279
0.0914727
0.0940691
0.0942864
0.0922008
0.0881356
0.0826616
0.076403
0.0701177
0.0646587
0.0608483
0.0592995
0.0600605
0.0624735
0.0651528
0.066293
0.0641586
0.0576239
0.0466074
0.0320484
0.015606
-0.000688126
-0.0151108
-0.0266229
-0.0347894
-0.0399778
-0.0429149
-0.0447293
-0.0464608
-0.0488442
-0.0521248
-0.0559909
-0.0598041
-0.0626653
-0.0638926
-0.0632704
-0.0610587
-0.0579617
-0.0547943
-0.0522179
-0.0505029
-0.0494622
-0.0485596
-0.0473459
-0.0457171
-0.0443195
-0.0447041
-0.0492069
-0.0602564
-0.0796333
-0.107762
-0.142888
-0.180673
-0.214111
-0.234291
-0.231296
-0.195085
-0.116958
0.00849644
0.180614
0.390061
0.617073
0.831939
0.9994
1.0864
1.07138
0.952112
0.748193
0.496856
0.243103
0.02721
-0.125352
-0.208372
-0.232667
-0.21915
-0.190079
-0.162304
-0.144302
-0.137141
-0.137816
-0.142238
-0.147198
-0.151141
-0.153762
-0.155343
-0.156249
-0.156774
-0.157222
-0.157834
-0.158825
-0.160238
-0.16183
-0.16328
-0.164211
-0.164376
-0.163615
-0.161911
-0.159279
-0.155782
-0.151519
-0.146582
-0.141314
-0.136049
-0.131223
-0.127199
-0.124139
-0.122038
-0.120731
-0.119926
-0.119447
-0.119263
-0.119407
-0.120074
-0.121309
-0.122982
-0.124691
-0.125969
-0.12627
-0.125257
-0.122869
-0.119231
-0.11473
-0.109855
-0.105153
-0.101005
-0.0977062
-0.0953625
-0.0938689
-0.0930441
-0.0925611
-0.0921965
-0.0918738
-0.0915804
-0.0914052
-0.0915121
-0.0919895
-0.0928173
-0.0939622
-0.0951313
-0.0961056
-0.0967546
-0.0970529
-0.097057
-0.0969859
-0.0970008
-0.0971732
-0.0975444
-0.0980778
-0.0987309
-0.0995201
-0.100471
-0.101588
-0.102802
-0.10379
-0.104142
-0.103352
-0.100811
-0.0959256
-0.0882638
-0.0777514
-0.0647719
-0.0502801
-0.0356031
-0.022171
-0.0111952
-0.00332629
0.00144409
0.0037454
0.00447242
0.00458408
0.0048525
0.00578314
0.00769147
0.0107257
0.0149378
0.0203313
0.0267639
0.0340833
0.0420677
0.0504186
0.0589914
0.0675693
0.0759522
0.0839017
0.0911657
0.0975237
0.102807
0.106949
0.109929
0.111711
0.112224
0.111445
0.109573
0.106937
0.104072
0.101518
0.0996593
0.0984607
0.0976035
0.0965248
0.0947049
0.0918307
0.087965
0.083477
0.078827
0.0745037
0.0706959
0.0675692
0.065191
0.0636191
0.0628764
0.0629495
0.0636173
0.064537
0.0650876
0.0647794
0.0632505
0.0604671
0.0567028
0.052447
0.0483075
0.044693
0.0418756
0.0399379
0.0386462
0.0376605
0.0364707
0.0345843
0.0316569
0.027597
0.0226638
0.017384
0.0124821
0.00850526
0.00568335
0.00377688
0.0022542
0.000371602
-0.00241068
-0.00615951
-0.0102953
-0.0139209
-0.0160117
-0.0158721
-0.0134189
-0.00925534
-0.00444919
-0.000100224
0.0028396
0.00391654
0.0032021
0.00113637
-0.00165407
-0.00458264
-0.00736367
-0.00984698
-0.0120904
-0.0142706
-0.0164623
-0.018535
-0.0203454
-0.0215483
-0.0220851
-0.0220536
-0.021818
-0.0218392
-0.0225936
-0.0241493
-0.0263856
-0.0288965
-0.0311978
-0.0328323
-0.0335126
-0.0331438
-0.0317863
-0.0296169
-0.0268725
-0.0238782
-0.021016
-0.0187195
-0.0171327
-0.0162597
-0.0158643
-0.0153464
-0.0140827
-0.0117219
-0.0081099
-0.00359564
0.00128294
0.00597709
0.0102264
0.0141456
0.0183748
0.0235531
0.0303253
0.0388488
0.048793
0.059323
0.0693129
0.0777151
0.0837164
0.0870075
0.087623
0.0859015
0.0823033
0.0773083
0.071274
0.0645668
0.0576617
0.0512462
0.0461108
0.0430068
0.0422299
0.0432724
0.0448272
0.0450822
0.042293
0.0353969
0.0244923
0.0108886
-0.00335193
-0.0161246
-0.0260175
-0.0325733
-0.0362679
-0.0380939
-0.0391014
-0.0399908
-0.040991
-0.042011
-0.0427886
-0.0432662
-0.0435133
-0.0438187
-0.0444617
-0.0456712
-0.0475151
-0.0499983
-0.0530476
-0.056573
-0.0603432
-0.064043
-0.0671295
-0.0688748
-0.0686272
-0.0661341
-0.0617045
-0.0563479
-0.0517295
-0.0500931
-0.0536156
-0.0642782
-0.0831539
-0.110238
-0.143853
-0.180285
-0.213742
-0.236377
-0.239095
-0.212227
-0.14685
-0.0367542
0.118812
0.312709
0.527921
0.737913
0.910006
1.01203
1.02096
0.930185
0.753168
0.521143
0.274989
0.054448
-0.111961
-0.212493
-0.252267
-0.247982
-0.220589
-0.18833
-0.162738
-0.148113
-0.143347
-0.144721
-0.148138
-0.150626
-0.150771
-0.148703
-0.145279
-0.141848
-0.139638
-0.139309
-0.140835
-0.143472
-0.14605
-0.147415
-0.146677
-0.143546
-0.138329
-0.131791
-0.124984
-0.118929
-0.114445
-0.111898
-0.111164
-0.111712
-0.112874
-0.114024
-0.114869
-0.115449
-0.115949
-0.116453
-0.116782
-0.116513
-0.115263
-0.112775
-0.109302
-0.105543
-0.102455
-0.100702
-0.100556
-0.101576
-0.103112
-0.104466
-0.10522
-0.105319
-0.104936
-0.104265
-0.103393
-0.102274
-0.100799
-0.0989259
-0.0967331
-0.0943308
-0.0919595
-0.0897335
-0.0877531
-0.0861113
-0.0848829
-0.0840103
-0.083332
-0.0826295
-0.0817389
-0.0807731
-0.0800254
-0.0801176
-0.0816354
-0.0849113
-0.089795
-0.0957031
-0.101825
-0.107512
-0.112369
-0.116513
-0.120251
-0.123856
-0.12735
-0.130356
-0.132106
-0.131901
-0.129033
-0.123272
-0.114804
-0.104212
-0.0925488
-0.0810349
-0.0709508
-0.0633037
-0.0584459
-0.0559108
-0.0546642
-0.053271
-0.0504742
-0.0456029
-0.038628
-0.0301676
-0.021005
-0.0117815
-0.00289117
0.00567987
