0.00133958
0.00601642
0.0115867
0.0178431
0.0245932
0.0314927
0.038296
0.0448482
0.0509575
0.0565077
0.0613995
0.0654901
0.0688513
0.0715623
0.0739091
0.0762301
0.0788397
0.0817346
0.0846435
0.0871838
0.0888602
0.0892982
0.0884259
0.0865222
0.0840652
0.0816509
0.079755
0.0786365
0.0782462
0.0783356
0.0784495
0.0782451
0.0774333
0.0758592
0.0736566
0.070901
0.0677129
0.0641881
0.0603406
0.0561732
0.0518489
0.0475722
0.0436301
0.0403403
0.0380083
0.0366401
0.0361681
0.0362749
0.0366388
0.0368524
0.0367338
0.0361032
0.0349412
0.0333021
0.031304
0.0290793
0.0267416
0.0244055
0.0221387
0.0199717
0.0178324
0.0156754
0.0134387
0.0110238
0.00848195
0.00584162
0.00328141
0.000966236
-0.00101675
-0.00264445
-0.00402904
-0.00541542
-0.00710002
-0.00924035
-0.011904
-0.0148329
-0.0177583
-0.0202079
-0.0218522
-0.0225168
-0.0221634
-0.021079
-0.0195623
-0.0181246
-0.0171313
-0.0167762
-0.0170554
-0.017822
-0.0188647
-0.0199319
-0.0209884
-0.0220246
-0.0231902
-0.0244781
-0.0258036
-0.0268843
-0.0274218
-0.0271169
-0.0258107
-0.0236564
-0.020982
-0.0182685
-0.0159823
-0.0145122
-0.0139931
-0.0143169
-0.0153188
-0.0166274
-0.0179386
-0.0188988
-0.0192892
-0.0189639
-0.0178821
-0.0159148
-0.0129355
-0.00878028
-0.00328608
0.00349332
0.0112279
0.019249
0.0268186
0.0333127
0.0385012
0.0426895
0.0465024
0.0506747
0.0557503
0.0618682
0.0687153
0.0756441
0.0818887
0.0867489
0.0895752
0.0900116
0.0879198
0.0834749
0.0773041
0.0703838
0.0640338
0.0596823
0.0583717
0.060434
0.0651021
0.0706849
0.0748812
0.0756556
0.0717085
0.0629507
0.0504054
0.0356957
0.0205479
0.00629719
-0.00637929
-0.0173874
-0.0267162
-0.0343837
-0.0402714
-0.0443686
-0.0467366
-0.0478923
-0.0484849
-0.0492563
-0.0507743
-0.0532033
-0.0562061
-0.05917
-0.0612808
-0.0620699
-0.0615038
-0.0600025
-0.058228
-0.0568466
-0.0561427
-0.0560277
-0.0561797
-0.0562881
-0.0566506
-0.0583222
-0.0631299
-0.0732177
-0.0904873
-0.115718
-0.148063
-0.184563
-0.220233
-0.248442
-0.262009
-0.254113
-0.219163
-0.152918
-0.0523818
0.0834627
0.252445
0.447252
0.653338
0.847887
1.00215
1.08692
1.08058
0.976993
0.789445
0.548822
0.296053
0.0708613
-0.0981688
-0.199827
-0.240065
-0.236809
-0.2117
-0.183154
-0.162062
-0.151813
-0.150498
-0.154186
-0.159217
-0.163301
-0.165727
-0.166447
-0.16555
-0.163094
-0.159307
-0.154539
-0.149466
-0.144883
-0.141406
-0.139448
-0.13892
-0.139492
-0.140596
-0.141525
-0.141857
-0.141401
-0.140222
-0.138503
-0.136542
-0.134449
-0.132334
-0.130027
-0.127461
-0.12455
-0.121335
-0.117969
-0.114737
-0.11194
-0.109766
-0.108216
-0.107093
-0.106062
-0.104723
-0.102833
-0.100446
-0.0978527
-0.0956318
-0.0942265
-0.0939608
-0.094827
-0.0965107
-0.0985602
-0.100643
-0.102483
-0.103881
-0.1048
-0.1051
-0.104816
-0.103968
-0.1027
-0.101275
-0.100039
-0.0991457
-0.0986404
-0.0983616
-0.09793
-0.0969761
-0.0952462
-0.0927297
-0.0897319
-0.0867221
-0.0842264
-0.0828008
-0.0827904
-0.0842743
-0.0870655
-0.0908084
-0.0949956
-0.0991215
-0.102762
-0.105634
-0.107486
-0.108145
-0.107338
-0.104841
-0.100488
-0.0942726
-0.0863923
-0.0774177
-0.0679855
-0.0587304
-0.0502065
-0.0427088
-0.0363921
-0.03139
-0.0277812
-0.0256071
-0.0247253
-0.0245403
-0.0241818
-0.022533
-0.0185491
-0.0117068
-0.00209729
0.0095363
0.0220539
0.0341923
0.045001
0.0538472
0.0604624
0.0649369
0.067599
0.0689644
0.0696429
0.0702219
0.0711039
0.0723213
0.0736037
0.0744319
0.0743913
0.0733209
0.0715153
0.0695206
0.0679632
0.0671647
0.0672026
0.0678569
0.0687889
0.0697666
0.0706749
0.0714195
0.0718875
0.071828
0.0708714
0.0688045
0.0656403
0.0616982
0.0574534
0.0534006
0.0497193
0.0464182
0.0431979
0.0398632
0.0363663
0.0328509
0.0295058
0.0265334
0.0239247
0.0216459
0.0195888
0.0177936
0.0164424
0.0157773
0.0159267
0.0168597
0.018304
0.0198835
0.0211567
0.0218157
0.0217111
0.0207312
0.0190163
0.016594
0.0135468
0.00990145
0.00566113
0.000725677
-0.00475459
-0.0105456
-0.0162874
-0.0213683
-0.0251146
-0.0269149
-0.0263789
-0.0234906
-0.0187161
-0.0129446
-0.00724416
-0.00261832
0.000291442
0.00126215
0.000625856
-0.00101467
-0.0029732
-0.00474381
-0.00598875
-0.00663672
-0.00689129
-0.00702953
-0.00743013
-0.00844739
-0.0102848
-0.012754
-0.0154495
-0.0177579
-0.0191247
-0.0193433
-0.0186381
-0.0176186
-0.0169806
-0.0171583
-0.0181678
-0.0195484
-0.0206358
-0.0209534
-0.0202547
-0.0184817
-0.0156799
-0.0117821
-0.00653546
0.000394575
0.00898629
0.0188915
0.0293061
0.0393124
0.0481541
0.055536
0.0616213
0.0667665
0.0712847
0.0750967
0.0778974
0.0793022
0.0790702
0.0773573
0.0746958
0.0715471
0.0681254
0.0643051
0.0597352
0.0543463
0.048737
0.0441411
0.0421026
0.043796
0.0493128
0.057296
0.0652725
0.0704458
0.0706138
0.0648768
0.053863
0.0391759
0.0229201
0.00683191
-0.00788854
-0.0206213
-0.0311327
-0.0393519
-0.0451938
-0.0486575
-0.050052
-0.0499393
-0.0491103
-0.048403
-0.048532
-0.0498255
-0.0523095
-0.0556209
-0.0592803
-0.0626429
-0.0651299
-0.0662905
-0.0658841
-0.0640207
-0.0612457
-0.05857
-0.05752
-0.0599239
-0.0676364
-0.082145
-0.104154
-0.132842
-0.165298
-0.196141
-0.217587
-0.220058
-0.192861
-0.126048
-0.0129364
0.146705
0.343866
0.558654
0.761275
0.917082
0.994585
0.974368
0.855785
0.658433
0.417626
0.174797
-0.0334044
-0.183741
-0.26975
-0.299788
-0.291087
-0.262631
-0.229643
-0.201192
-0.180538
-0.167107
-0.158737
-0.153144
-0.148937
-0.145745
-0.143707
-0.143044
-0.143724
-0.145523
-0.147915
-0.150403
-0.152496
-0.1539
-0.154481
-0.154046
-0.152526
-0.149828
-0.146014
-0.141325
-0.136354
-0.13171
-0.127905
-0.12511
-0.123233
-0.121947
-0.120816
-0.119634
-0.118344
-0.117074
-0.116083
-0.115457
-0.115241
-0.115245
-0.115377
-0.115669
-0.116277
-0.117319
-0.118812
-0.120408
-0.121399
-0.12096
-0.118456
-0.113707
-0.107247
-0.100238
-0.0940789
-0.0899114
-0.0882323
-0.0888015
-0.0907217
-0.0927661
-0.0938817
-0.093438
-0.0914675
-0.0886517
-0.0860386
-0.084753
-0.0856419
-0.0889612
-0.0940991
-0.0997694
-0.104379
-0.106727
-0.106422
-0.104143
-0.101369
-0.0998347
-0.100782
-0.104483
-0.110364
-0.117223
-0.123808
-0.129374
-0.133817
-0.137299
-0.139904
-0.141397
-0.141147
-0.138395
-0.132696
-0.124092
-0.113364
-0.101746
-0.0904163
-0.0802117
-0.0714186
-0.0637217
-0.0564945
-0.048932
-0.0402783
-0.0300952
-0.0182995
-0.00520316
0.00860549
0.0221705
0.0346938
0.0456578
0.054817
0.0623469
0.0686823
0.0742255
0.0792256
0.0837633
0.0877998
0.0913647
0.0945898
0.0976234
0.100621
0.10347
0.105864
0.107409
0.107747
0.106755
0.10462
0.101738
0.0984612
0.0952211
0.0921762
0.0894351
0.0870948
0.0853477
0.0843993
0.0843292
0.0851261
0.0865067
0.0880473
0.089212
0.0895965
0.0890067
0.0874642
0.0852232
0.0826442
0.0801092
0.0778588
0.0760954
0.074851
0.0740595
0.0735524
0.0730964
0.0723529
0.0710052
0.0687362
0.0653828
0.061088
0.0562142
0.0512931
0.0468915
0.0434806
0.041261
0.0402153
0.0401771
0.0408408
0.0419084
0.0430304
0.0439132
0.0444496
0.0445782
0.0444134
0.0441793
0.0440949
0.0442843
0.0447164
0.0452213
0.0456676
0.0459129
0.0459359
0.045786
0.0456912
0.0456414
0.0455345
0.0451482
0.0442083
0.0423793
0.03951
0.0356625
0.0311514
0.0264861
0.0222281
0.0188215
0.0166215
0.0157017
0.0158334
0.0166568
0.0177821
0.0188525
0.0197425
0.0204018
0.0209302
0.021399
0.0216954
0.0216404
0.0211276
0.0201677
0.0190791
0.0185049
0.0192954
0.0221747
0.027472
0.0348625
0.0434198
0.0520325
0.0596377
0.0656408
0.0701658
0.0739379
0.0777834
0.0824977
0.0883278
0.0950255
0.101893
0.108078
0.11272
0.115304
0.11558
0.113675
0.110118
0.10564
0.100954
0.0966951
0.0931237
0.0903786
0.0885698
0.0880055
0.0890033
0.0917678
0.0958526
0.100024
0.102418
0.10097
0.0941575
0.0815792
0.0641596
0.0438276
0.0229938
0.00376237
-0.0123152
-0.0245482
-0.0328287
-0.0375666
-0.0393712
-0.0389499
-0.0371148
-0.0346789
-0.0323116
-0.030584
-0.0297468
-0.0298889
-0.0307907
-0.0321489
-0.0335393
-0.0345831
-0.0348513
-0.0341985
-0.032792
-0.0312926
-0.0312631
-0.0348795
-0.0445233
-0.0621834
-0.0884957
-0.121847
-0.157741
-0.188784
-0.205478
-0.197596
-0.155627
-0.0720568
0.0569396
0.229938
0.43862
0.666426
0.888356
1.07341
1.18963
1.21167
1.12854
0.948462
0.698708
0.419566
0.154327
-0.0615127
-0.207771
-0.282234
-0.297472
-0.27421
-0.233917
-0.193131
-0.161327
-0.141627
-0.132895
-0.132077
-0.13583
-0.141491
-0.147226
-0.151738
-0.154241
-0.15438
-0.152244
-0.148438
-0.14374
-0.139021
-0.135069
-0.132357
-0.1311
-0.131193
-0.132114
-0.133218
-0.133874
-0.133566
-0.132171
-0.130008
-0.127621
-0.1256
-0.124372
-0.123916
-0.123993
-0.124004
-0.123452
-0.122121
-0.120065
-0.117535
-0.114808
-0.112031
-0.109216
-0.106268
-0.103258
-0.100328
-0.097816
-0.0960023
-0.0950309
-0.094674
-0.0946399
-0.0944553
-0.0937767
-0.092554
-0.0909672
-0.089345
-0.0880503
-0.087357
-0.0874224
-0.0881811
-0.0894612
-0.0910193
-0.0925235
-0.0936619
-0.0942758
-0.0943355
-0.0940056
-0.0936145
-0.0934376
-0.093743
-0.0946507
-0.0961782
-0.0981443
-0.100371
-0.102706
-0.105096
-0.107579
-0.110328
-0.113482
-0.116988
-0.120721
-0.124194
-0.126763
-0.127699
-0.126227
-0.121897
-0.11438
-0.103733
-0.0902558
-0.0745235
-0.05725
-0.0392782
-0.0214418
-0.00440357
0.0112367
0.0251953
0.0373931
0.0480396
0.0574477
0.0660297
0.0740865
0.0818411
0.0893221
0.0964764
0.103116
0.109018
0.114031
0.117988
0.120831
0.122521
0.122921
0.122042
0.119916
0.116765
0.113031
0.10915
0.105663
0.102933
0.10108
0.0999929
0.0994099
0.0990378
0.0987068
0.098393
0.0981762
0.0980828
0.0981916
0.0982912
0.0981887
0.0975748
0.0962328
0.0940859
0.0913914
0.0885212
0.0859054
0.083779
0.0821506
0.080708
0.0790561
0.0768329
0.073858
0.0702377
0.0661708
0.0619068
0.0576319
0.0534369
0.0493827
0.0456395
0.0423907
0.0398763
0.0381669
0.0371706
0.0365339
0.0359473
0.0351191
0.0339754
0.0326682
0.0315273
0.0307956
0.0305405
0.030577
0.0304181
0.02947
0.0273248
0.0237787
0.019109
0.0139059
0.00900451
0.0051856
0.00283354
0.00194452
0.00202937
0.00239823
0.00231473
0.001458
-0.000278866
-0.00259223
-0.00503299
-0.00718649
-0.00873335
-0.00956116
-0.00960469
-0.00894688
-0.00775203
-0.00619803
-0.0045629
-0.00315554
-0.00219888
-0.00171273
-0.00164358
-0.00179391
-0.00186851
-0.00171107
-0.00127288
-0.000766065
-0.000499985
-0.000709909
-0.00147221
-0.00252445
-0.0032308
-0.00280674
-0.00051148
0.00411972
0.0110806
0.0199336
0.0298836
0.0400334
0.0495346
0.0578743
0.0648785
0.0705831
0.0752884
0.0793147
0.0830521
0.086576
0.0898162
0.0925799
0.094559
0.0955259
0.0952468
0.0936435
0.0906917
0.0865083
0.0813498
0.0756118
0.0699999
0.0652581
0.0621095
0.0609284
0.0613486
0.0623183
0.0621988
0.0593466
0.0526282
0.0418103
0.0276362
0.0116373
-0.00426753
-0.0184181
-0.0298013
-0.0380294
-0.0433744
-0.046362
-0.0477014
-0.0480441
-0.048047
-0.0482597
-0.0489656
-0.0504819
-0.0527974
-0.0556831
-0.0587912
-0.061524
-0.0632817
-0.063725
-0.0627589
-0.0607833
-0.0588226
-0.0585844
-0.0623224
-0.0723855
-0.0905439
-0.117293
-0.150886
-0.186436
-0.215975
-0.229098
-0.214376
-0.161141
-0.0613561
0.0881904
0.284173
0.515001
0.760131
0.991023
1.17429
1.27773
1.27807
1.16826
0.961543
0.690171
0.398151
0.130184
-0.0791815
-0.213119
-0.273877
-0.278574
-0.251213
-0.21421
-0.18297
-0.164172
-0.157487
-0.158976
-0.164047
-0.169382
-0.173499
-0.176251
-0.178009
-0.179068
-0.17958
-0.179493
-0.178769
-0.177475
-0.175723
-0.173815
-0.172041
-0.17068
-0.169901
-0.169715
-0.169987
-0.170449
-0.170822
-0.170796
-0.170164
-0.16894
-0.167102
-0.164726
-0.161931
-0.158746
-0.155221
-0.151526
-0.147898
-0.144627
-0.141995
-0.140185
-0.139026
-0.138188
-0.137205
-0.135708
-0.133629
-0.13113
-0.128638
-0.126684
-0.125717
-0.125904
-0.127127
-0.128999
-0.13102
-0.132725
-0.133871
-0.134432
-0.134568
-0.134495
-0.13433
-0.134
-0.133227
-0.131767
-0.12951
-0.126591
-0.123412
-0.120458
-0.118201
-0.116774
-0.116084
-0.115737
-0.115282
-0.114511
-0.113501
-0.112675
-0.11262
-0.113783
-0.116418
-0.120291
-0.124797
-0.129072
-0.132326
-0.133907
-0.13342
-0.130726
-0.125717
-0.118374
-0.108781
-0.0970711
-0.0836751
-0.0692504
-0.0546645
-0.0408808
-0.0285073
-0.0177916
-0.00846113
8.06142e-5
0.00842837
0.0169527
0.025638
0.0342347
0.0423457
0.049749
0.0565083
0.0629716
0.0694752
0.0761631
0.0829697
0.0894212
0.0948608
0.098696
0.100509
0.100271
0.0981987
0.0947486
0.090539
0.0861966
0.0822301
0.07917
0.0772725
0.0766284
0.0771188
0.0784448
0.0802282
0.0821287
0.0838731
0.085248
0.0861787
0.0865404
0.0862621
0.0851813
0.083407
0.081024
0.0781763
0.0751293
0.0720215
0.0689436
0.0659971
0.0631925
0.0605263
0.0580422
0.0556771
0.0533012
0.0508176
0.0481352
0.0452218
0.0421792
0.039152
0.0363269
0.0338808
0.031882
0.0303816
0.0293881
0.028759
0.0283901
0.0281253
0.0277046
0.0268532
0.0253116
0.0229974
0.0199441
0.0164575
0.0129644
0.00992243
0.00759826
0.0061237
0.0053739
0.00507591
0.00490959
0.00472969
0.00435417
0.00372201
0.0027628
0.00141983
-0.000333083
-0.00241555
-0.00468215
-0.00684196
-0.00864568
-0.00979905
-0.0102784
-0.0102213
-0.00981969
-0.00937646
-0.00908402
-0.0090575
-0.00930618
-0.0097197
-0.0100648
-0.0101593
-0.00973009
-0.00863659
-0.00688487
-0.00474951
-0.0026164
-0.00112356
-0.000707528
-0.00154529
-0.00344546
-0.0059257
-0.00831151
-0.0100408
-0.0106605
-0.00991858
-0.00771857
-0.00407277
0.00105676
0.00755955
0.0152908
0.0238455
0.032763
0.0414718
0.0495736
0.0568723
0.0633851
0.069361
0.0750459
0.0805546
0.0856089
0.089769
0.0924132
0.0930481
0.0914669
0.0878318
0.0827265
0.0770074
0.0716066
0.0674513
0.0653289
0.06568
0.0685468
0.0732252
0.0784314
0.0824901
0.0837295
0.0810333
0.0740127
0.0632706
0.0500203
0.035705
0.0215841
0.0085366
-0.00302521
-0.0128504
-0.0207283
-0.0265651
-0.03048
-0.0328626
-0.0345106
-0.0361937
-0.0385875
-0.0419823
-0.0462121
-0.0508113
-0.0551248
-0.0587139
-0.0613616
-0.0629666
-0.063516
-0.0629532
-0.0611709
-0.0582924
-0.0546593
-0.0510089
-0.048458
-0.0484739
-0.0526396
-0.0625033
-0.0790911
-0.102761
-0.132698
-0.166473
-0.199508
-0.225159
-0.234798
-0.218591
-0.166543
-0.0702899
0.0739659
0.262389
0.480665
0.703335
0.896278
1.02349
1.05646
0.983436
0.814719
0.581368
0.327223
0.0965546
-0.0779252
-0.18227
-0.221763
-0.215203
-0.186107
-0.154554
-0.132478
-0.123255
-0.124488
-0.131342
-0.139405
-0.14588
-0.149631
-0.150772
-0.149768
-0.147355
-0.144271
-0.141292
-0.139159
-0.138275
-0.138704
-0.14014
-0.142049
-0.143735
-0.144638
-0.144442
-0.142967
-0.140321
-0.136728
-0.132436
-0.127707
-0.122799
-0.118026
-0.113711
-0.110163
-0.107652
-0.106292
-0.105907
-0.106037
-0.106054
-0.105472
-0.103992
-0.10188
-0.0997207
-0.0983177
-0.0981932
-0.0994433
-0.101419
-0.103109
-0.103533
-0.102082
-0.0988217
-0.094566
-0.0903303
-0.0870436
-0.0850698
-0.0841626
-0.0836291
-0.0827314
-0.0810531
-0.0787178
-0.0762695
-0.0742982
-0.0732467
-0.0732089
-0.0739832
-0.0752038
-0.076662
-0.0781916
-0.0798657
-0.0816241
-0.0834393
-0.0851443
-0.0865936
-0.0878161
-0.0888904
-0.0900784
-0.0916136
-0.0935486
-0.095887
-0.0984442
-0.101003
-0.103361
-0.105164
-0.106046
-0.105472
-0.102874
-0.0977949
-0.0900384
-0.0798185
-0.0678545
-0.0551309
-0.0428006
-0.0319225
-0.0232108
-0.0168875
-0.0127607
-0.0101863
-0.00821731
-0.00591266
-0.00244918
0.00266874
0.00952209
0.0178417
0.0271052
0.036752
0.0462976
0.0552949
0.0635044
0.0707133
0.0768341
0.0816774
0.0851991
0.0872675
0.087784
0.0867376
0.084285
0.0806329
0.0761487
0.0712855
0.066503
0.0621159
0.0584854
0.0558184
0.0542627
0.0539058
0.054698
0.0563856
0.0585794
0.0607674
0.0624358
0.0632814
0.0630766
0.0618437
0.0597372
0.0570421
0.0540159
0.0510158
0.0481692
0.0455663
0.0431591
0.0407654
0.0382304
0.0355058
0.0326685
0.0298809
0.0273215
0.0251892
0.0234284
0.0219648
0.0206569
0.0194034
0.0181752
0.0168755
0.0153902
0.0134929
0.0109834
0.0077018
0.00378731
-0.000312578
-0.00398973
-0.00673042
-0.00828156
-0.008872
-0.00907102
-0.00958631
-0.0110227
-0.0133607
-0.0162529
-0.0189695
-0.0208377
-0.021464
-0.0209395
-0.0197782
-0.0185749
-0.0178837
-0.0178276
-0.0183352
-0.0192041
-0.0201629
-0.0211455
-0.0221344
-0.0231391
-0.0240649
-0.0248105
-0.0252596
-0.0254361
-0.0254702
-0.025534
-0.0257466
-0.0260557
-0.0263772
-0.0265026
-0.0265575
-0.0267253
-0.0273525
-0.0287781
-0.0310112
-0.0338089
-0.0365802
-0.0387027
-0.0394337
-0.0383883
-0.0353302
-0.0304051
-0.0239803
-0.016529
-0.00861193
-0.000747894
0.00670565
0.0136493
0.0202016
0.0267289
0.0336285
0.0412546
0.0496631
0.0583326
0.0664079
0.0728012
0.076545
0.0770147
0.0742751
0.0690298
0.0622922
0.0551355
0.0483429
0.0425793
0.0383572
0.0362091
0.0366469
0.0400593
0.0461059
0.0535532
0.0602965
0.0638778
0.0621295
0.0539471
0.0396451
0.0209492
0.000488549
-0.0191345
-0.0358295
-0.0484033
-0.0567041
-0.0614928
-0.0638911
-0.0650911
-0.0659678
-0.067025
-0.0683827
-0.0699797
-0.0717066
-0.0736655
-0.0760062
-0.0787154
-0.0815165
-0.0838443
-0.0848953
-0.0841844
-0.081803
-0.0784723
-0.0754848
-0.0742754
-0.0761092
-0.0818893
-0.0922258
-0.107418
-0.127755
-0.153106
-0.182314
-0.212585
-0.239673
-0.258144
-0.262756
-0.249428
-0.215674
-0.159804
-0.0798023
0.02715
0.163456
0.32803
0.512404
0.697861
0.856302
0.956229
0.971826
0.892206
0.726975
0.504868
0.266124
0.0508605
-0.111797
-0.210032
-0.249114
-0.245916
-0.220972
-0.191522
-0.167808
-0.153222
-0.146624
-0.145269
-0.146673
-0.149421
-0.152975
-0.157005
-0.161058
-0.164443
-0.166469
-0.166574
-0.164412
-0.160018
-0.153756
-0.146384
-0.139034
-0.132825
-0.128673
-0.126992
-0.127614
-0.129827
-0.132829
-0.135841
-0.138391
-0.140301
-0.141458
-0.141763
-0.141074
-0.139194
-0.136004
-0.131583
-0.126256
-0.120704
-0.115707
-0.11203
-0.110235
-0.110475
-0.112331
-0.115063
-0.117744
-0.119541
-0.11988
-0.118712
-0.116351
-0.113292
-0.110074
-0.107156
-0.104766
-0.103045
-0.101927
-0.101215
-0.100596
-0.099691
-0.0980822
-0.0956694
-0.0926787
-0.0896954
-0.0876101
-0.0871334
-0.0887872
-0.0925147
-0.0977706
-0.103713
-0.109483
-0.114469
-0.118426
-0.121522
-0.124153
-0.126679
-0.129319
-0.132053
-0.134584
-0.13652
-0.137531
-0.137319
-0.135908
-0.133501
-0.130405
-0.126999
-0.123619
-0.120319
-0.116852
-0.112623
-0.106888
-0.099079
-0.088942
-0.0767485
-0.0633029
-0.0496061
-0.0366291
-0.0248762
-0.0143839
-0.00474699
0.00461174
0.0141248
0.0239353
0.033813
0.0432844
0.0518631
0.0592144
0.0651645
0.0699938
0.0740928
0.0779008
0.0818488
0.0860645
0.0905014
0.0948422
0.0985743
0.101371
0.103012
0.103676
0.103649
0.103359
0.103017
0.102619
0.101936
0.100737
0.0989584
0.0968007
0.0945919
0.0926985
0.0911621
0.0897612
0.0880276
0.0854967
0.0820043
0.077588
0.072536
0.0672759
0.0621668
0.0575933
0.0538136
0.0510851
0.0496405
0.0494341
0.0503049
0.0517615
0.0532214
0.0540738
0.0539721
0.0529286
0.051276
0.0493766
0.0475968
0.046016
0.0445224
0.0427409
0.0404957
0.0377208
0.0346086
0.0315819
0.0289349
0.0268301
0.0253086
0.0242223
0.023429
0.0228
0.0222939
0.0219607
0.021766
0.0216974
0.0216955
0.0217361
0.0218448
0.0220409
0.0223886
0.0228668
0.0233732
0.0238479
0.0242321
0.0245393
0.0248034
0.0251292
0.0254481
0.025656
0.0255928
0.025084
0.0241079
0.0227891
0.0212574
0.0197238
0.0182287
0.0168336
0.0155095
0.0141695
0.0128195
0.011507
0.0102051
0.00884569
0.00731864
0.00561092
0.00375162
0.00190845
0.000345317
-0.000632091
-0.000608642
0.000758536
0.00385149
0.0088631
0.0158068
0.0243685
0.0340342
0.0441023
0.0538778
0.0627881
0.0707089
0.0776645
0.0840136
0.0900174
0.0958603
0.101473
0.106562
0.110652
0.11328
0.114183
0.11336
0.111049
0.107678
0.103673
0.0994234
0.0952904
0.0915258
0.0886496
0.0872089
0.0876445
0.0900119
0.0937171
0.0974506
0.0995401
0.0983877
0.0931261
0.0837026
0.071048
0.0567525
0.0424655
0.0295984
0.0190596
0.0113989
0.0066327
0.004564
0.00459716
0.00581959
0.00716303
0.0076811
0.00684238
0.00455344
0.00126317
-0.00226063
-0.00531474
-0.00740584
-0.00837573
-0.0084965
-0.00812193
-0.0076578
-0.00751425
-0.00770421
-0.00811629
-0.00845887
-0.00835991
-0.00770494
-0.00677267
-0.006496
-0.00852841
-0.0149966
-0.0279303
-0.0487082
-0.0772756
-0.11126
-0.145637
-0.172691
-0.182886
-0.165749
-0.111522
-0.0128114
0.133019
0.321448
0.538867
0.761913
0.959347
1.0973
1.14735
1.09465
0.94398
0.720271
0.462906
0.215279
0.0134229
-0.122517
-0.19086
-0.205171
-0.186723
-0.1565
-0.129321
-0.11208
-0.105054
-0.105176
-0.108668
-0.112781
-0.116105
-0.118276
-0.119319
-0.119265
-0.118337
-0.116864
-0.115386
-0.114347
-0.114053
-0.11441
-0.115108
-0.115685
-0.115827
-0.115442
-0.11473
-0.114091
-0.113887
-0.11425
-0.1151
-0.116111
-0.116816
-0.116898
-0.116191
-0.114758
-0.112756
-0.110395
-0.107834
-0.105184
-0.102427
-0.0997012
-0.0971008
-0.0948726
-0.0931393
-0.0919977
-0.0912786
-0.0907353
-0.0900439
-0.0890328
-0.0876777
-0.0862577
-0.0851505
-0.0847223
-0.0851555
-0.0864229
-0.0882591
-0.0902474
-0.0921631
-0.0936176
-0.0944717
-0.0945545
-0.0938362
-0.0923856
-0.0903933
-0.0881531
-0.0860721
-0.0845026
-0.0836875
-0.0836085
-0.0840375
-0.0845775
-0.0849229
-0.0848959
-0.0845454
-0.0841341
-0.0841119
-0.0848384
-0.0866078
-0.0895377
-0.0935148
-0.098236
-0.103244
-0.10802
-0.111757
-0.113721
-0.113154
-0.109566
-0.102872
-0.0933485
-0.0818193
-0.0693772
-0.0571892
-0.046258
-0.037143
-0.0298758
-0.0240442
-0.0189361
-0.0136952
-0.00761533
-0.000178613
0.00884491
0.0195094
0.03159
0.0446556
0.0580945
0.0711232
0.082922
0.0928003
0.100343
0.105536
0.108703
0.110457
0.111501
0.112539
0.113841
0.115513
0.117209
0.11845
0.118803
0.118023
0.116208
0.11379
0.111261
0.109036
0.107312
0.105912
0.104566
0.102966
0.101033
0.0988357
0.0966826
0.094846
0.0933832
0.0921316
0.0908307
0.0891821
0.0870883
0.0846331
0.0820979
0.0797397
0.0777047
0.0758967
0.0742113
0.0724358
0.0704517
0.0682547
0.0658545
0.0632882
0.0605686
0.0576863
0.0547034
0.05179
0.0492287
0.0472601
0.0459902
0.0453842
0.0451194
0.0448197
0.0441971
0.0431828
0.0418492
0.0404614
0.0392148
0.0381679
0.0371805
0.0358602
0.033992
0.0314989
0.0285169
0.0253962
0.0225005
0.0199975
0.0179683
0.0162248
0.0145469
0.0127806
0.0108503
0.00878513
0.00673
0.00488235
0.0033845
0.00230478
0.00166001
0.00137836
0.00135911
0.00138219
0.00133589
0.00104528
0.00043005
-0.000521798
-0.00181587
-0.00330147
-0.00495763
-0.0067479
-0.00866131
-0.0107233
-0.0130031
-0.015364
-0.0177234
-0.0198356
-0.02148
-0.0226049
-0.0233244
-0.0237413
-0.0241084
-0.0245789
-0.0252234
-0.0258007
-0.0258914
-0.0248547
-0.0219693
-0.0166221
-0.00856428
0.00198407
0.0142877
0.0272006
0.0394242
0.0498306
0.0578522
0.0635212
0.067462
0.0705383
0.0737155
0.0775251
0.0819967
0.0866387
0.0906046
0.0930577
0.0934017
0.0914077
0.0872364
0.0813329
0.0743082
0.0668353
0.0597159
0.0538791
0.0503591
0.0499921
0.0530221
0.0587973
0.0656729
0.0713742
0.0736951
0.0712201
0.0637461
0.0523559
0.0388551
0.0252106
0.0127963
0.00214023
-0.00678338
-0.0143712
-0.0209194
-0.0264392
-0.0308715
-0.0342524
-0.036812
-0.0389129
-0.0409876
-0.0433768
-0.0462043
-0.0492996
-0.0525113
-0.0555344
-0.0582459
-0.06062
-0.0626943
-0.0645498
-0.0660901
-0.0671666
-0.0674418
-0.0665861
-0.0644308
-0.0612499
-0.0577875
-0.0553307
-0.0555115
-0.0599461
-0.0699612
-0.0863737
-0.109159
-0.137366
-0.168763
-0.1995
-0.223757
-0.234046
-0.221904
-0.178932
-0.0978083
0.0260049
0.19255
0.395177
0.618822
0.839575
1.02638
1.14655
1.17352
1.09543
0.920634
0.677757
0.408802
0.15811
-0.0395771
-0.167113
-0.226541
-0.234494
-0.213898
-0.185523
-0.162697
-0.150272
-0.146968
-0.148987
-0.15278
-0.156291
-0.158916
-0.160816
-0.16215
-0.162807
-0.162578
-0.161449
-0.159641
-0.157558
-0.15564
-0.154083
-0.152914
-0.152084
-0.151472
-0.150925
-0.150362
-0.14967
-0.148685
-0.147265
-0.145296
-0.142805
-0.139896
-0.136763
-0.133577
-0.130552
-0.127768
-0.125291
-0.123168
-0.121392
-0.119917
-0.118628
-0.117418
-0.116098
-0.114627
-0.113021
-0.111347
-0.109941
-0.10911
-0.109138
-0.110082
-0.111859
-0.11415
-0.116483
-0.118357
-0.119441
-0.119425
-0.118255
-0.115988
-0.112854
-0.109275
-0.105741
-0.102825
-0.100988
-0.100433
-0.10105
-0.10243
-0.104036
-0.105254
-0.105827
-0.105649
-0.104921
-0.104093
-0.103637
-0.103932
-0.10518
-0.107362
-0.110215
-0.113286
-0.116054
-0.118135
-0.119178
-0.119153
-0.118033
-0.115807
-0.112309
-0.107253
-0.100263
-0.0910687
-0.0797182
-0.066614
-0.0526648
-0.038913
-0.0263963
-0.0159561
-0.00788771
-0.00199032
0.00224507
0.00572046
0.00937425
0.0138949
0.0196181
0.0264041
0.0338145
0.0412813
0.048224
0.0544406
0.0599285
0.0648943
0.0695902
0.0741551
0.078537
0.0826205
0.0863378
0.0896687
0.092801
0.0958624
0.0989865
0.101983
0.104641
0.106584
0.107496
0.107261
0.106072
0.104156
0.101844
0.0993298
0.0967516
0.094154
0.0914999
0.088785
0.0861283
0.083532
0.0810772
0.0788534
0.0769413
0.0754047
0.0742564
0.0733793
0.0724722
0.0711983
0.0692099
0.0663508
0.062836
0.0590809
0.05559
0.0528193
0.0509146
0.049643
0.0485521
0.0471787
0.0451413
0.0424137
0.0391776
0.0357714
0.0325198
0.029536
0.0266344
0.0235521
0.0199666
0.0157486
0.0110735
0.0063653
0.0022151
-0.000839742
-0.00253937
-0.00298629
-0.00265585
-0.00222654
-0.00234623
-0.00327563
-0.00495008
-0.00706832
-0.00915562
-0.0108673
-0.0121337
-0.0130863
-0.0138501
-0.0145468
-0.0150894
-0.0153622
-0.0152409
-0.014792
-0.0142393
-0.0139752
-0.0143812
-0.015788
-0.0182858
-0.0217368
-0.0257953
-0.029943
-0.0335287
-0.0360984
-0.0373568
-0.0373287
-0.0362583
-0.0345958
-0.0329252
-0.0315809
-0.0308038
-0.0305494
-0.0305308
-0.0304204
-0.0298966
-0.0287333
-0.0269632
-0.0247758
-0.0225069
-0.0205132
-0.0190477
-0.0182105
-0.0178973
-0.0178569
-0.0177861
-0.0173564
-0.0161666
-0.0137981
-0.0099151
-0.00428458
0.00302914
0.0116421
0.0207694
0.0293709
0.0366231
0.042085
0.0459116
0.0488456
0.0518146
0.0557775
0.0611351
0.0676223
0.0743207
0.080131
0.0839494
0.0851493
0.0837115
0.0801103
0.0752107
0.0699817
0.0652503
0.0617477
0.0600135
0.0603856
0.0626872
0.0661152
0.0692347
0.0702367
0.0673896
0.0597517
0.0474866
0.0318384
0.0148299
-0.00153881
-0.015637
-0.0266336
-0.0343457
-0.0390649
-0.0411387
-0.0410377
-0.0393542
-0.0368465
-0.034392
-0.03277
-0.0325465
-0.0338614
-0.0364385
-0.0397386
-0.0431525
-0.0462555
-0.0488393
-0.0508811
-0.0524091
-0.0535176
-0.0542238
-0.0544351
-0.0541216
-0.0533906
-0.0525792
-0.0521547
-0.0529311
-0.0559509
-0.062611
-0.0743792
-0.0924176
-0.117198
-0.147955
-0.181957
-0.214021
-0.236692
-0.240898
-0.216818
-0.155046
-0.0484647
0.10539
0.301602
0.525674
0.752836
0.950211
1.0829
1.12249
1.05593
0.891111
0.656593
0.394476
0.149052
-0.045007
-0.170563
-0.229441
-0.237754
-0.217857
-0.190165
-0.167767
-0.155491
-0.152184
-0.154001
-0.157173
-0.159401
-0.160081
-0.159681
-0.159039
-0.158696
-0.158899
-0.15958
-0.160384
-0.160942
-0.160914
-0.160203
-0.158982
-0.1577
-0.156809
-0.156587
-0.156985
-0.157601
-0.157991
-0.157721
-0.156614
-0.154746
-0.152415
-0.149914
-0.147456
-0.145105
-0.142811
-0.14043
-0.137887
-0.135127
-0.132076
-0.128799
-0.125341
-0.121758
-0.118248
-0.11496
-0.112075
-0.109659
-0.107694
-0.106082
-0.10473
-0.103565
-0.102411
-0.101309
-0.100238
-0.0993496
-0.098798
-0.0987644
-0.0993436
-0.100624
-0.102393
-0.104391
-0.106224
-0.107568
-0.108219
-0.108134
-0.107397
-0.10611
-0.104351
-0.102123
-0.0993604
-0.096192
-0.0928754
-0.0899302
-0.0880786
-0.0880743
-0.0902587
-0.0945652
-0.100502
-0.107193
-0.113646
-0.118877
-0.122186
-0.123219
-0.121906
-0.11822
-0.1123
-0.10421
-0.0941467
-0.0825001
-0.0700099
-0.0577252
-0.0467891
-0.0380425
-0.0317978
-0.0276273
-0.0245373
-0.021399
-0.0172391
-0.0116101
-0.00458904
0.00362451
0.0126161
0.0220817
0.031808
0.0414576
0.0505777
0.0585794
0.0649803
0.0696752
0.0729766
0.0755234
0.0780315
0.0808926
0.084028
0.0868546
0.0886457
0.0888604
0.087392
0.0845752
0.0811582
0.0779161
0.0753241
0.0736746
0.0728988
0.0727912
0.0732825
0.0741717
0.0754234
0.0769229
0.0784626
0.0796732
0.080177
0.0795683
0.0775576
0.0740658
0.0692506
0.0635236
0.0574033
0.0514523
0.0460493
0.0413448
0.0372738
0.0336169
0.0301638
0.0268339
0.0236342
0.0206843
0.0180631
0.0157336
0.0135956
0.0115862
0.00963794
0.00786487
0.006357
0.00524932
0.00437914
0.00351703
0.00231988
0.000590345
-0.00169535
-0.00434639
-0.00704289
-0.00939689
-0.0112614
-0.0126313
-0.0136298
-0.0143359
-0.0148719
-0.0153242
-0.0158413
-0.0166172
-0.0178739
-0.0198165
-0.0224633
-0.0255728
-0.0287298
-0.0313689
-0.0330015
-0.0333488
-0.0323747
-0.0303912
-0.0278974
-0.0254033
-0.0234549
-0.0225201
-0.0228403
-0.0244155
-0.0269624
-0.0300417
-0.0330096
-0.0352803
-0.0364622
-0.0365383
-0.0356622
-0.0341994
-0.0324431
-0.0305876
-0.028665
-0.0266593
-0.0246403
-0.0227028
-0.0208326
-0.0188783
-0.0164764
-0.0131763
-0.00870803
-0.00313941
0.003188
0.00967544
0.0158662
0.0217437
0.0276415
0.0341557
0.0417565
0.0503111
0.0590792
0.066871
0.0725082
0.0752539
0.0750446
0.0723782
0.0681537
0.0631699
0.0580189
0.0530614
0.048658
0.045205
0.0431182
0.0424851
0.0428483
0.0431572
0.0420403
0.0383098
0.0313408
0.0213693
0.00940192
-0.0032467
-0.0152756
-0.0258761
-0.0347781
-0.0419969
-0.0476102
-0.0515482
-0.0537342
-0.0540402
-0.0527197
-0.0502434
-0.0474177
-0.0450536
-0.0438308
-0.0440207
-0.0454347
-0.0476337
-0.0500724
-0.0523351
-0.0542567
-0.0559252
-0.0575438
-0.0593637
-0.06146
-0.06366
-0.0655823
-0.0667641
-0.0670548
-0.066873
-0.0674912
-0.070802
-0.0791241
-0.0945024
-0.117636
-0.147124
-0.178577
-0.204502
-0.214806
-0.197729
-0.141719
-0.0383713
0.114168
0.308112
0.524037
0.732115
0.896877
0.985392
0.976708
0.868756
0.680541
0.447642
0.212374
0.0122062
-0.129514
-0.207521
-0.232098
-0.222351
-0.198137
-0.173982
-0.156803
-0.147067
-0.141932
-0.138371
-0.134774
-0.131265
-0.128978
-0.128898
-0.131128
-0.134925
-0.138926
-0.141904
-0.142937
-0.141592
-0.138142
-0.133193
-0.127632
-0.122481
-0.11865
-0.116772
-0.11702
-0.119151
-0.122433
-0.126032
-0.129071
-0.131003
-0.131652
-0.131229
-0.13015
-0.128704
-0.127025
-0.125007
-0.122376
-0.118789
-0.11416
-0.108613
-0.102732
-0.0971391
-0.0925741
-0.0896834
-0.0886927
-0.0894521
-0.0914674
-0.0940517
-0.0964335
-0.0980591
-0.0987662
-0.0987179
-0.0984794
-0.0986223
-0.0996969
-0.101808
-0.104641
-0.107513
-0.109546
-0.110038
-0.108564
-0.105274
-0.100782
-0.096106
-0.0921917
-0.089609
-0.0883127
-0.0878986
-0.087687
-0.0871493
-0.0862418
-0.0853799
-0.0853501
-0.0869079
-0.0905012
-0.0960538
-0.103049
-0.110731
-0.118189
-0.124756
-0.129885
-0.133361
-0.135112
-0.135199
-0.133724
-0.130643
-0.125855
-0.119141
-0.110415
-0.0997387
-0.0873912
-0.0739082
-0.0598819
-0.0457536
-0.0317736
-0.0179897
-0.00429809
0.00926545
0.0225002
0.0349551
0.04611
0.0555128
0.0630252
0.0688881
0.0734585
0.0772549
0.0806955
0.0839821
0.0870966
0.089865
0.0920492
0.093635
0.0946529
0.0953394
0.0959265
0.0965169
0.0969395
0.0968768
0.0959811
0.0940449
0.0912231
0.0880979
0.0854909
0.0841661
0.0844994
0.0863571
0.0890493
0.0916468
0.0931953
0.0930542
0.0910622
0.0873806
0.0822932
0.0761824
0.0693713
0.0621786
0.0551154
0.0487318
0.0437236
0.0405835
0.0395691
0.0404048
0.0425348
0.0451602
0.0475004
0.0490142
0.0493184
0.0481848
0.0454831
0.0412666
0.0357071
0.0292443
0.0225542
0.0163501
0.0113111
0.00787874
0.00612012
0.0057319
0.00624245
0.00711267
0.00783717
0.00815661
0.00795915
0.00729601
0.00626185
0.00498096
0.0034786
0.00184255
0.000150034
-0.00147526
-0.00273025
-0.00339035
-0.0032684
-0.00229036
-0.000643455
0.00128941
0.00305898
0.00422183
0.00449522
0.00384955
0.00243607
0.000526153
-0.00162747
-0.0039394
-0.00646919
-0.00936991
-0.0126759
-0.0163348
-0.0199699
-0.02304
-0.024866
-0.0247969
-0.022344
-0.0173616
-0.00998491
-0.000736173
0.00955492
0.0199942
0.0297051
0.0381251
0.0450886
0.0508842
0.0560134
0.0610983
0.0664903
0.0722003
0.0778497
0.0827662
0.0862707
0.0879503
0.0876327
0.0854694
0.0818103
0.0771038
0.0718588
0.0666182
0.0621762
0.0592772
0.0584074
0.0595169
0.0616602
0.0633778
0.0629008
0.0588674
0.0508014
0.0392734
0.025694
0.0117771
-0.000865804
-0.0112178
-0.0188989
-0.024027
-0.0269722
-0.028121
-0.0279817
-0.0271305
-0.0260592
-0.0252295
-0.0249997
-0.0254554
-0.0266214
-0.0281885
-0.0299498
-0.0316063
-0.0329036
-0.0335799
-0.0332942
-0.0318309
-0.0291052
-0.0254912
-0.0216274
-0.0185844
-0.0176367
-0.020144
-0.0273504
-0.0403091
-0.0596151
-0.0851663
-0.115699
-0.148321
-0.177995
-0.197585
-0.198431
-0.170816
-0.105267
0.00516412
0.162451
0.360251
0.581901
0.800055
0.98027
1.08803
1.09822
1.0034
0.817974
0.57558
0.320217
0.0942032
-0.0728371
-0.16995
-0.204347
-0.195162
-0.16508
-0.132758
-0.108979
-0.0966826
-0.0936914
-0.0959264
-0.0996633
-0.102687
-0.104343
-0.104781
-0.104502
-0.103939
-0.103586
-0.103774
-0.104751
-0.106373
-0.108406
-0.110322
-0.111587
-0.111784
-0.110742
-0.108532
-0.105437
-0.10188
-0.0982694
-0.0949437
-0.0921077
-0.0899467
-0.0884834
-0.08754
-0.086789
-0.0858354
-0.0843035
-0.0820899
-0.0794719
-0.0769591
-0.0750903
-0.0742609
-0.0744166
-0.0751158
-0.0756323
-0.075418
-0.0741732
-0.0720891
-0.0696709
-0.0674973
-0.066024
-0.0654068
-0.0656196
-0.0665071
-0.0679213
-0.0698241
-0.0721766
-0.0748091
-0.0774285
-0.0796426
-0.080982
-0.0811486
-0.0801179
-0.0781904
-0.0758336
-0.0735819
-0.0719092
-0.0710986
-0.0711762
-0.0719957
-0.0733756
-0.0750858
-0.0770218
-0.0791911
-0.0816772
-0.0846584
-0.0882832
-0.092748
-0.0981082
-0.104297
-0.111099
-0.118007
-0.124359
-0.129361
-0.132155
-0.131916
-0.12806
-0.12018
-0.108306
-0.0927501
-0.0742672
-0.0539678
-0.0331271
-0.0128688
0.00593303
0.0227604
0.0375511
0.0505237
0.0619956
0.0724182
0.081981
0.0908729
0.0990087
0.106237
0.112239
0.116656
0.11935
0.120326
0.11994
0.118794
0.117577
0.116812
0.116885
0.117776
0.119267
0.120933
0.122328
0.123223
0.123508
0.123203
0.122398
0.121169
0.119592
0.117681
0.115499
0.113
0.110257
0.107267
0.104124
0.100904
0.0976612
0.0945436
0.0915396
0.0887244
0.0860155
0.0833953
0.0808681
0.0786074
0.0767514
0.075446
0.0746457
0.0741418
0.0735737
0.0725643
0.070898
0.0685303
0.0656453
0.0626743
0.0599481
0.0576932
0.0559182
0.0544259
0.052919
0.0511396
0.0488847
0.0461088
0.0429924
0.0397353
0.0366732
0.034081
0.0322884
0.0314098
0.03155
0.0325409
0.0340198
0.0354156
0.036219
0.0359305
0.0342864
0.0313045
0.0273085
0.0228778
0.0187538
0.0154329
0.0133088
0.0123521
0.0122252
0.012362
0.0121579
0.0111545
0.00919083
0.00640015
0.00309043
-0.000363962
-0.00364833
-0.00664504
-0.00938924
-0.0118697
-0.014134
-0.0159861
-0.0171462
-0.0172378
-0.0161084
-0.0138885
-0.0109979
-0.0081049
-0.00582176
-0.00439814
-0.00360181
-0.00266545
-0.000559743
0.00368482
0.0105254
0.0197542
0.0304083
0.0411308
0.0506982
0.0583341
0.0640469
0.0685048
0.0727005
0.0774482
0.0830652
0.0891479
0.094864
0.0991659
0.101283
0.100803
0.0978116
0.0927868
0.0865203
0.0799385
0.0740756
0.0699567
0.0682336
0.0691031
0.071896
0.0752131
0.0771835
0.076005
0.0705254
0.0606412
0.047241
0.0320064
0.0167164
0.002903
-0.00863613
-0.0177288
-0.024659
-0.0298064
-0.0335332
-0.0361361
-0.0378356
-0.0389359
-0.0397362
-0.0405605
-0.0417233
-0.0433613
-0.0454475
-0.047908
-0.0505341
-0.0532385
-0.0559659
-0.0587163
-0.0613251
-0.0634992
-0.0648365
-0.0649924
-0.0640507
-0.0628856
-0.0633669
-0.068127
-0.0798188
-0.100252
-0.129219
-0.163632
-0.197059
-0.220144
-0.221792
-0.190224
-0.114789
0.0117126
0.190033
0.411509
0.655898
0.891727
1.08049
1.18499
1.17984
1.06045
0.846457
0.57769
0.303341
0.0681984
-0.0990102
-0.19109
-0.219927
-0.208641
-0.181705
-0.157133
-0.143384
-0.140605
-0.144561
-0.150448
-0.155073
-0.157382
-0.157966
-0.15785
-0.157799
-0.158068
-0.158448
-0.158713
-0.158754
-0.158592
-0.15836
-0.158307
-0.158624
-0.159441
-0.160575
-0.161804
-0.162743
-0.163052
-0.162495
-0.160975
-0.158522
-0.155288
-0.151596
-0.14787
-0.144578
-0.142113
-0.140574
-0.139738
-0.139031
-0.137926
-0.135888
-0.132798
-0.129057
-0.125211
-0.121959
-0.11975
-0.118765
-0.118839
-0.119652
-0.120841
-0.122214
-0.123565
-0.124852
-0.126001
-0.126968
-0.127661
-0.127835
-0.127369
-0.126127
-0.124058
-0.121288
-0.118019
-0.114545
-0.111107
-0.107989
-0.105375
-0.103451
-0.10233
-0.102097
-0.102789
-0.104264
-0.106398
-0.108929
-0.111583
-0.114191
-0.11672
-0.119184
-0.121703
-0.124349
-0.127088
-0.129636
-0.131549
-0.132316
-0.131289
-0.127987
-0.122085
-0.1135
-0.102393
-0.0891438
-0.0744314
-0.059066
-0.0439331
-0.029899
-0.0176994
-0.0075857
0.000421281
0.00668779
0.0118469
0.0165499
0.0213104
0.0264453
0.0320789
0.0381711
0.0446154
0.0513442
0.0582877
0.0653223
0.0723626
0.0792009
0.0855317
0.0911265
0.0957416
0.0992187
0.1015
0.102722
0.103095
0.102953
0.102631
0.10241
0.102532
0.103003
0.103714
0.10439
0.104727
0.104386
0.103074
0.100723
0.0973963
0.093411
0.0892162
0.0852433
0.0818588
0.0792022
0.0772477
0.0758321
0.0746918
0.0735716
0.072199
0.0704593
0.0682991
0.0657809
0.0630243
0.0600679
0.0569133
0.0534524
0.0495273
0.0450551
0.0401386
0.0351261
0.0304443
0.0264727
0.023432
0.0211355
0.0192534
0.017306
0.0149903
0.0122453
0.00928782
0.00658738
0.00447994
0.00322323
0.00290574
0.00331612
0.00414666
0.0050668
0.00579234
0.0062238
0.00627574
0.00604075
0.00558463
0.00498504
0.00426552
0.00338368
0.00231865
0.00103556
-0.000370353
-0.00171363
-0.00286104
-0.0035674
-0.0039275
-0.00412207
-0.00444468
-0.00520998
-0.00651432
-0.00835952
-0.010437
-0.0123345
-0.0137071
-0.0143353
-0.0142013
-0.0135106
-0.0124068
-0.0112078
-0.00999072
-0.00882933
-0.00779077
-0.00692751
-0.00638871
-0.00624532
-0.00646162
-0.00671031
-0.00641118
-0.00491565
-0.00155542
0.0039351
0.0114518
0.0204222
0.0299703
0.0393409
0.0478353
0.0552891
0.0619613
0.0682063
0.0742561
0.0800353
0.0850768
0.0887075
0.0903495
0.0897984
0.0872797
0.0834296
0.0791196
0.0750538
0.0719079
0.0700656
0.0697457
0.0709206
0.0730593
0.0752183
0.0760628
0.0742368
0.0688084
0.0596292
0.0473019
0.0331114
0.0185703
0.00496152
-0.00699631
-0.0170463
-0.0252795
-0.0319507
-0.0371196
-0.0408304
-0.0430401
-0.0438993
-0.0436972
-0.0429458
-0.0422721
-0.0421672
-0.0430001
-0.0447888
-0.0472336
-0.0498812
-0.0522233
-0.0538802
-0.0547139
-0.0548336
-0.0544486
-0.0538681
-0.0532893
-0.0530482
-0.0536883
-0.0563386
-0.0626714
-0.0746223
-0.0938909
-0.121008
-0.154613
-0.190477
-0.221609
-0.238819
-0.231845
-0.190589
-0.10656
0.0249889
0.202857
0.417402
0.649096
0.868915
1.04211
1.13552
1.12669
1.0118
0.808803
0.554008
0.29268
0.0665082
-0.0970631
-0.189927
-0.221824
-0.213583
-0.188052
-0.162862
-0.147078
-0.141961
-0.144395
-0.150119
-0.156012
-0.160615
-0.163813
-0.165882
-0.166935
-0.166739
-0.165121
-0.162219
-0.158507
-0.15463
-0.151134
-0.14834
-0.146221
-0.144564
-0.143052
-0.141445
-0.139632
-0.137645
-0.135631
-0.133709
-0.13196
-0.130504
-0.129337
-0.128533
-0.128116
-0.12803
-0.128262
-0.128618
-0.128942
-0.128921
-0.128289
-0.126843
-0.124611
-0.121817
-0.118786
-0.115826
-0.113119
-0.110706
-0.108486
-0.106302
-0.104128
-0.102171
-0.100654
-0.0998224
-0.0996744
-0.100017
-0.100496
-0.100692
-0.100448
-0.0997076
-0.0986864
-0.0977764
-0.0971899
-0.0970691
-0.0972547
-0.0975521
-0.0976869
-0.097521
-0.0971053
-0.0965801
-0.096191
-0.0962353
-0.0969218
-0.0982526
-0.100027
-0.101982
-0.103808
-0.105269
-0.106371
-0.107249
-0.108088
-0.108896
-0.109532
-0.10961
-0.108498
-0.105696
-0.100774
-0.0935529
-0.0840985
-0.0727487
-0.0601123
-0.0469964
-0.0343923
-0.0233184
-0.0145451
-0.00845497
-0.00491779
-0.00319393
-0.00214057
-0.000600175
0.00237017
0.00731579
0.0142092
0.022598
0.0318862
0.0414556
0.0508256
0.0596636
0.067932
0.0755541
0.0825299
0.0888168
0.094352
0.0990193
0.102692
0.105309
0.106866
0.107379
0.106975
0.10571
0.103733
0.101028
0.0977612
0.0941976
0.0906653
0.0875574
0.0850918
0.0832589
0.0817498
0.0802438
0.0783829
0.0760924
0.073689
0.0716926
0.0704996
0.0703247
0.0708826
0.0716552
0.0719332
0.0712463
0.0695487
0.0671297
0.0645901
0.0624833
0.0609994
0.0599357
0.0586477
0.0564164
0.0527381
0.0474813
0.0409949
0.0339736
0.0273258
0.0218298
0.0179592
0.0157707
0.014903
0.0148437
0.0150267
0.0150471
0.0147235
0.0140384
0.0130854
0.0118733
0.0104149
0.00860542
0.00633792
0.00356045
0.000317523
-0.00313396
-0.00641744
-0.0090937
-0.0107986
-0.0113513
-0.0108619
-0.00987976
-0.00906095
-0.0090734
-0.0103451
-0.0129204
-0.0164817
-0.0205316
-0.0245764
-0.0284014
-0.0320113
-0.0355381
-0.0390349
-0.042354
-0.0451177
-0.0467762
-0.0470301
-0.0457599
-0.0433312
-0.0403896
-0.0376828
-0.035804
-0.0350092
-0.0351651
-0.0358976
-0.0366192
-0.0369395
-0.0365413
-0.0354341
-0.0338493
-0.03221
-0.0310131
-0.0305698
-0.0310998
-0.0324513
-0.0341906
-0.0356663
-0.036081
-0.0347313
-0.0311751
-0.0252832
-0.0174039
-0.00812392
0.00166929
0.0111466
0.0197457
0.0272781
0.0338662
0.0399299
0.0459419
0.0522744
0.0589399
0.065709
0.0720289
0.0771928
0.0805338
0.0814462
0.0797092
0.0753996
0.0690165
0.0614016
0.0536258
0.0468758
0.0421079
0.0397916
0.0398657
0.0413734
0.0429656
0.0431222
0.0406185
0.0348765
0.0258662
0.0141281
0.00056631
-0.0138374
-0.028169
-0.0414929
-0.0529456
-0.0617798
-0.0675233
-0.0701719
-0.0702261
-0.0685379
-0.0660759
-0.063608
-0.0615644
-0.0601806
-0.0594288
-0.0592924
-0.0597308
-0.0606982
-0.062133
-0.0637104
-0.0650068
-0.0655925
-0.0651061
-0.0635126
-0.0608745
-0.057525
-0.0539649
-0.0507282
-0.0483773
-0.047725
-0.049793
-0.0559462
-0.0676795
-0.0861972
-0.112019
-0.144143
-0.179404
-0.212218
-0.234796
-0.237844
-0.211414
-0.146389
-0.0366237
0.118515
0.3115
0.524915
0.73179
0.899525
0.996622
1.00124
0.908191
0.73209
0.504362
0.265009
0.0519749
-0.108195
-0.205402
-0.245313
-0.24405
-0.221176
-0.193278
-0.170535
-0.156584
-0.150518
-0.149493
-0.150494
-0.151676
-0.152316
-0.152419
-0.152188
-0.151841
-0.151411
-0.150703
-0.149368
-0.147053
-0.143592
-0.139126
-0.134388
-0.13036
-0.127949
-0.127603
-0.129161
-0.131802
-0.134346
-0.135812
-0.135664
-0.134012
-0.131435
-0.128707
-0.126308
-0.124403
-0.122815
-0.121202
-0.119352
-0.117259
-0.11512
-0.113156
-0.11156
-0.110266
-0.109092
-0.10782
-0.106313
-0.104624
-0.102942
-0.101461
-0.100254
-0.0993231
-0.0985962
-0.0979407
-0.09733
-0.0967843
-0.0963932
-0.0962568
-0.0964195
-0.0968359
-0.097543
-0.0983624
-0.0992952
-0.100246
-0.1011
-0.101622
-0.101664
-0.101072
-0.0997026
-0.0975585
-0.0947356
-0.091483
-0.0882379
-0.0855966
-0.0841859
-0.0845505
-0.0870014
-0.0913238
-0.0968812
-0.10278
-0.108001
-0.111897
-0.114271
-0.115304
-0.115524
-0.115304
-0.114782
-0.113845
-0.112078
-0.10901
-0.104261
-0.0978553
-0.0900248
-0.081485
-0.0731569
-0.0660119
-0.0608283
-0.0577712
-0.0564949
-0.0560941
-0.0554348
-0.0534869
-0.0496754
-0.0439432
-0.0365502
-0.0279421
-0.0186941
-0.00916006
0.000304724
0.0094849
0.0182588
0.0265092
0.0344194
0.0421427
0.0499189
0.0578599
0.0658726
0.0736317
0.0806722
0.086528
0.0908106
0.0933298
0.0941899
0.0935659
0.091922
0.0897829
0.0876397
0.0858162
0.0844711
0.0834604
0.0824309
0.0809213
0.078713
0.0757707
0.0725034
0.0694648
0.0673104
0.0664579
0.0667771
0.0677183
0.0684059
0.0678745
0.065511
0.0613228
0.0557988
0.0499238
0.0446412
0.0407414
0.0384396
0.0376319
0.0378229
0.0384816
0.0391279
0.0393469
0.0389803
0.0379411
0.0362838
0.0343084
0.0322887
0.0305801
0.0293382
0.0285618
0.0280038
0.0273743
0.0263561
0.0247762
0.0225602
0.019794
0.0165846
0.0130336
0.00930606
0.00552479
0.00191045
-0.00137488
-0.00406928
-0.00611454
-0.00739539
-0.00800449
-0.00804639
-0.00761945
-0.00687658
-0.00570144
-0.00397767
-0.00162928
0.001331
0.00460795
0.00772789
0.010079
0.0112545
0.0110468
0.00963871
0.00752439
0.00519919
0.002987
0.000870846
-0.00151488
-0.00462591
-0.00881827
-0.0140373
-0.0196815
-0.024925
-0.0287566
-0.0304739
-0.0298192
-0.0270545
-0.022787
-0.0178515
-0.0132269
-0.0096547
-0.00772819
-0.00773009
-0.00932056
-0.011693
-0.0136123
-0.0137365
-0.011041
-0.00522746
0.00319385
0.0129407
0.0224395
0.030395
0.0363264
0.040445
0.0437966
0.0475635
0.0525174
0.0589044
0.0661108
0.0729951
0.0782847
0.0810543
0.0808873
0.0781029
0.0735268
0.0680957
0.0627397
0.0582273
0.0549794
0.0533753
0.0535948
0.0554687
0.0584968
0.0616929
0.0635038
0.0623658
0.0569798
0.0467828
0.0321715
0.0145982
-0.00396476
-0.0213186
-0.0355674
-0.045585
-0.0510581
-0.052415
-0.0506804
-0.0472103
-0.0432209
-0.0396715
-0.037076
-0.0355885
-0.0351174
-0.0354294
-0.0362893
-0.0374934
-0.0388739
-0.0403273
-0.0419025
-0.0437257
-0.0460204
-0.0488323
-0.0519523
-0.0549568
-0.057299
-0.0584916
-0.0585946
-0.0584225
-0.0595101
-0.0639948
-0.0740222
-0.091134
-0.115606
-0.145554
-0.176464
-0.201242
-0.210864
-0.195321
-0.14511
-0.052912
0.0843829
0.2635
0.472889
0.691913
0.891942
1.04057
1.10877
1.07884
0.950844
0.744609
0.495612
0.245897
0.0331212
-0.118686
-0.203311
-0.230365
-0.219105
-0.190594
-0.161063
-0.139389
-0.127649
-0.123685
-0.124091
-0.126102
-0.128198
-0.13005
-0.13163
-0.132849
-0.133418
-0.133054
-0.13155
-0.128912
-0.125414
-0.121371
-0.117201
-0.113204
-0.109555
-0.106405
-0.103871
-0.102041
-0.100939
-0.100531
-0.100665
-0.100953
-0.101049
-0.100556
-0.0992363
-0.0971696
-0.094549
-0.0917899
-0.0893529
-0.0875609
-0.0865987
-0.0864851
-0.0869595
-0.0877462
-0.0885488
-0.0892316
-0.0897783
-0.0904142
-0.0912305
-0.0922514
-0.0933622
-0.0942194
-0.0944767
-0.093923
-0.0925007
-0.0904047
-0.0878892
-0.0852448
-0.0826837
-0.0803241
-0.0782715
-0.0765274
-0.0752644
-0.0745489
-0.074464
-0.0749289
-0.0757618
-0.0765954
-0.077219
-0.0773583
-0.0770156
-0.0765119
-0.0762712
-0.0767964
-0.0784761
-0.0815237
-0.0857043
-0.0907217
-0.0960773
-0.101336
-0.106175
-0.110436
-0.113995
-0.116735
-0.118333
-0.118402
-0.116466
-0.112265
-0.105697
-0.0971442
-0.0872801
-0.0770668
-0.0675474
-0.0596302
-0.0537487
-0.0498924
-0.0475908
-0.0459005
-0.0439425
-0.0408733
-0.0361632
-0.0295733
-0.0212384
-0.0112797
-8.68653e-5
0.0120764
0.0248199
0.0377713
0.05054
0.062745
0.0740707
0.0843107
0.0932885
0.100989
0.107433
0.112782
0.117141
0.120713
0.123534
0.125514
0.126555
0.126558
0.125627
0.123976
0.122177
0.120773
0.120237
0.120779
0.122241
0.124162
0.126003
0.127324
0.127906
0.127805
0.127088
0.125996
0.124619
0.122991
0.121223
0.119324
0.11744
0.115596
0.113845
0.111979
0.109821
0.107216
0.10403
0.100442
0.0965929
0.0928878
0.0896629
0.0872343
0.0857704
0.0852736
0.0856083
0.0864064
0.0872971
0.0879008
0.0878774
0.0870466
0.0854839
0.0833468
0.08087
0.0782259
0.0754921
0.0727491
0.0699096
0.0670294
0.06427
0.0618028
0.0598561
0.0585097
0.0577318
0.057289
0.0569915
0.0565154
0.0556197
0.0541188
0.051988
0.0492671
0.046159
0.0430763
0.0404147
0.0385447
0.0376952
0.0378177
0.0388033
0.0403253
0.0420872
0.0438525
0.0454168
0.0465256
0.04707
0.0468882
0.0460079
0.0445691
0.0427838
0.0409183
0.0392194
0.0377444
0.0364614
0.0353121
0.0341751
0.0330131
0.0317742
0.0304645
0.0290283
0.0273509
0.0253292
0.0229389
0.0203032
0.0177956
0.0157451
0.0145937
0.0144874
0.015438
0.0172084
0.0195223
0.0221701
0.0253009
0.0292086
0.0344506
0.0414041
0.0501259
0.0601571
0.0706553
0.0805671
0.0889586
0.0953848
0.0999223
0.10311
0.105736
0.108441
0.111456
0.114634
0.117367
0.118949
0.118747
0.116538
0.112541
0.107384
0.101745
0.0961639
0.0908606
0.0858684
0.0812102
0.0772817
0.0748315
0.0747637
0.077592
0.082908
0.0891846
0.0940854
0.0951223
0.0905442
0.0800197
0.0645755
0.0462735
0.0275714
0.0105535
-0.00351488
-0.014229
-0.0218698
-0.0270179
-0.0303496
-0.0324805
-0.0338652
-0.0348544
-0.0356284
-0.0362427
-0.0367534
-0.03714
-0.0375131
-0.0380155
-0.038831
-0.039974
-0.0412822
-0.0424442
-0.0432481
-0.0436044
-0.0439475
-0.0454053
-0.0496517
-0.0586309
-0.0741171
-0.0970675
-0.127065
-0.161745
-0.196181
-0.222925
-0.232639
-0.215051
-0.160248
-0.0604723
0.0880314
0.282988
0.514413
0.763577
1.00361
1.20234
1.32765
1.35444
1.27179
1.08748
0.828046
0.533289
0.247123
0.00715141
-0.163494
-0.259474
-0.291375
-0.279616
-0.246761
-0.211159
-0.183875
-0.168617
-0.163805
-0.165485
-0.169727
-0.17383
-0.176629
-0.177901
-0.177989
-0.177295
-0.176118
-0.174821
-0.173624
-0.17274
-0.172236
-0.172157
-0.172391
-0.17269
-0.172796
-0.172451
-0.171449
-0.169782
-0.167599
-0.165027
-0.162279
-0.159496
-0.156715
-0.153925
-0.151048
-0.148005
-0.144802
-0.141529
-0.138328
-0.135376
-0.132782
-0.130611
-0.128937
-0.127635
-0.126634
-0.125781
-0.124882
-0.123824
-0.12264
-0.121411
-0.120308
-0.119501
-0.11917
-0.119369
-0.120004
-0.121053
-0.122379
-0.123909
-0.12547
-0.126873
-0.127846
-0.128107
-0.127519
-0.126026
-0.123749
-0.120973
-0.118094
-0.115427
-0.11319
-0.111503
-0.110413
-0.109866
-0.109929
-0.1107
-0.11235
-0.115007
-0.118681
-0.123305
-0.128597
-0.13413
-0.139426
-0.143856
-0.146697
-0.147038
-0.144097
-0.137258
-0.126324
-0.111727
-0.0942341
-0.0750515
-0.0554869
-0.0367211
-0.0196159
-0.00477971
0.00758224
0.0174761
0.0252412
0.0314094
0.0366252
0.0415555
0.046898
0.0529367
0.0596911
0.0669022
0.0741233
0.0808724
0.0869055
0.0921385
0.0966778
0.100662
0.104209
0.107345
0.109902
0.11191
0.113351
0.114391
0.11524
0.116006
0.116594
0.116852
0.116421
0.115176
0.11315
0.110624
0.108084
0.105943
0.104358
0.103223
0.102154
0.10058
0.0982191
0.0949941
0.0911018
0.0870194
0.0831068
0.079617
0.0765808
0.0737799
0.0710765
0.0683513
0.0657727
0.0636289
0.0622516
0.061766
0.0620593
0.06269
0.063188
0.0631133
0.0622651
0.0607435
0.058686
0.0563748
0.0539019
0.0513436
0.0486545
0.0458861
0.0430161
0.0400967
0.0371161
0.0339176
0.0304497
0.0267455
0.0229277
0.0193418
0.0163206
0.0140978
0.0126966
0.0119196
0.0114418
0.0108834
0.00995484
0.00858617
0.00679078
0.00479771
0.00282821
0.00111024
-0.000227943
-0.00113488
-0.00160447
-0.00170823
-0.00152681
-0.00117805
-0.000800848
-0.000496073
-0.000422401
-0.000637797
-0.00118939
-0.0020763
-0.00316632
-0.00440657
-0.00565521
-0.00684472
-0.00795058
-0.00898134
-0.0100414
-0.0111753
-0.0123537
-0.0135904
-0.014649
-0.0153747
-0.0155273
-0.0150279
-0.0138683
-0.0122114
-0.010315
-0.00841014
-0.00661665
-0.00477344
-0.00242146
0.0011056
0.00641307
0.013816
0.0231334
0.0336926
0.0444111
0.0542572
0.0624219
0.0686103
0.0730698
0.0763652
0.0793134
0.0824795
0.0861261
0.0901243
0.0938567
0.0966199
0.0977116
0.0967158
0.0937056
0.0891284
0.0836887
0.0781472
0.073231
0.0693973
0.0670568
0.0664978
0.0679905
0.0713458
0.0758507
0.080159
0.0824363
0.0808564
0.0741871
0.0622443
0.0459725
0.0272037
0.00804972
-0.00962462
-0.0246005
-0.0364081
-0.0450073
-0.0508105
-0.0543419
-0.0560449
-0.0564856
-0.0562231
-0.0556063
-0.0549653
-0.0545795
-0.0544615
-0.0546086
-0.0549556
-0.055503
-0.0561094
-0.0565531
-0.0565793
-0.0558632
-0.0542607
-0.0520014
-0.0496638
-0.0484218
-0.0497718
-0.0555366
-0.0673401
-0.0863611
-0.11291
-0.14616
-0.183634
-0.220688
-0.25038
-0.263711
-0.250079
-0.198656
-0.100259
0.0496909
0.247603
0.479052
0.717789
0.928368
1.07283
1.12035
1.05701
0.891679
0.65514
0.392248
0.149253
-0.038782
-0.156001
-0.206578
-0.209141
-0.187563
-0.162328
-0.145495
-0.140139
-0.143296
-0.150069
-0.156354
-0.160063
-0.161044
-0.160058
-0.158031
-0.155436
-0.152577
-0.149554
-0.146555
-0.14382
-0.141465
-0.139564
-0.138174
-0.13718
-0.136486
-0.136
-0.135437
-0.134537
-0.133097
-0.130945
-0.128107
-0.12487
-0.12164
-0.118847
-0.11686
-0.11571
-0.115225
-0.115051
-0.114708
-0.11387
-0.112492
-0.110811
-0.109094
-0.107728
-0.1068
-0.106091
-0.105242
-0.103809
-0.101591
-0.0986647
-0.0954229
-0.0923386
-0.0898273
-0.0880106
-0.0867178
-0.0856835
-0.0846272
-0.0834086
-0.0821277
-0.0809997
-0.0802552
-0.0800731
-0.0804059
-0.0812372
-0.0823875
-0.0837737
-0.0852337
-0.0866654
-0.0879126
-0.0889178
-0.0896977
-0.0904365
-0.0913026
-0.0925228
-0.0940759
-0.0958977
-0.097783
-0.0995192
-0.101108
-0.102702
-0.104527
-0.106699
-0.109162
-0.111486
-0.112983
-0.112776
-0.109979
-0.104033
-0.0948205
-0.0826955
-0.0686467
-0.0540203
-0.0401794
-0.0281507
-0.0185097
-0.011041
-0.00511466
0.000197404
0.00563257
0.0117155
0.0184788
0.0257644
0.0333064
0.040866
0.0484614
0.0561175
0.0638879
0.071666
0.0791934
0.0861145
0.0921547
0.0970937
0.10085
0.103571
0.105438
0.10665
0.107302
0.107527
0.107307
0.106632
0.105451
0.103762
0.101673
0.0993425
0.0970795
0.0950759
0.0934959
0.0922796
0.0912825
0.0902517
0.0889591
0.087368
0.085552
0.0837758
0.0822855
0.0812094
0.0803992
0.0795623
0.0782978
0.0762729
0.0734309
0.0699312
0.0661162
0.0622936
0.0585489
0.0547557
0.05063
0.0458845
0.0404767
0.0347192
0.0291597
0.024522
0.0213959
0.0200814
0.0204104
0.0219353
0.0238022
0.0250995
0.0250942
0.0233922
0.0200873
0.0157009
0.0111174
0.00718604
0.004553
0.00341659
0.00351215
0.00422988
0.0048653
0.0048035
0.00377988
0.00175761
-0.00107575
-0.00435657
-0.00774258
-0.0109339
-0.013588
-0.0155504
-0.0167382
-0.017202
-0.0171165
-0.0167536
-0.0164018
-0.0161804
-0.0161548
-0.0163037
-0.0165458
-0.016833
-0.0171752
-0.0176207
-0.0181789
-0.0187187
-0.0190971
-0.0190346
-0.0183612
-0.0170777
-0.0154859
-0.0141755
-0.0138315
-0.0150789
-0.0180554
-0.0224078
-0.0273199
-0.0317521
-0.0346906
-0.0354544
-0.0336915
-0.0294693
-0.0231089
-0.015129
-0.00618354
0.00303276
0.0119051
0.0199813
0.0270393
0.0332562
0.0390851
0.0450029
0.0514249
0.0583782
0.0655719
0.0723177
0.0779063
0.081596
0.0828649
0.081469
0.0774651
0.0712208
0.0633752
0.0548404
0.0467061
0.0401582
0.0362039
0.0353968
0.0375414
0.0415386
0.045718
0.0481138
0.0470113
0.0413877
0.0312597
0.0175266
0.0017598
-0.0141973
-0.0287196
-0.0407339
-0.0498954
-0.0562281
-0.0602814
-0.0627297
-0.0641849
-0.0651765
-0.0660933
-0.0671067
-0.0684368
-0.0701871
-0.0724909
-0.0753814
-0.0788003
-0.0825694
-0.0863457
-0.0896953
-0.0921813
-0.0933191
-0.0927943
-0.0904837
-0.0865747
-0.0815812
-0.0763924
-0.0723051
-0.0711664
-0.0750037
-0.0858089
-0.105179
-0.133554
-0.169441
-0.208726
-0.244394
-0.266696
-0.264049
-0.224327
-0.137667
0.000545106
0.185972
0.403018
0.624564
0.815541
0.940297
0.971952
0.900714
0.738214
0.515282
0.273696
0.0546732
-0.111902
-0.21362
-0.255273
-0.253674
-0.229648
-0.201152
-0.179118
-0.167181
-0.163999
-0.165909
-0.169361
-0.171922
-0.172521
-0.170877
-0.167307
-0.162329
-0.156728
-0.15139
-0.147096
-0.144481
-0.143808
-0.144962
-0.147482
-0.150675
-0.153751
-0.155932
-0.156533
-0.155175
-0.151909
-0.147164
-0.141801
-0.136738
-0.132785
-0.130403
-0.129536
-0.129825
-0.130687
-0.131457
-0.131572
-0.130638
-0.128579
-0.125492
-0.121888
-0.118379
-0.115708
-0.114362
-0.114446
-0.115458
-0.116569
-0.116818
-0.115579
-0.112825
-0.109174
-0.105491
-0.102642
-0.101098
-0.100729
-0.101018
-0.101334
-0.101271
-0.100779
-0.100203
-0.0999951
-0.100572
-0.102058
-0.104366
-0.107188
-0.110354
-0.11359
-0.116836
-0.120046
-0.123175
-0.126118
-0.128763
-0.130952
-0.132672
-0.133996
-0.135253
-0.136838
-0.13923
-0.142587
-0.146662
-0.150662
-0.153345
-0.153294
-0.149324
-0.140894
-0.12836
-0.112853
-0.0960448
-0.0796405
-0.0649831
-0.052639
-0.0425012
-0.034038
-0.0264328
-0.0190653
-0.0115674
-0.00383198
0.0041083
0.012197
0.0204515
0.0289243
0.0377435
0.0468835
0.0561072
0.0648853
0.072513
0.0783082
0.0818323
0.0830492
0.0825563
0.0812239
0.0800816
0.0797827
0.0805078
0.0818466
0.0831233
0.0836783
0.08327
0.0821534
0.0807345
0.0794569
0.078344
0.0770351
0.0750001
0.071939
0.0679767
0.0638586
0.0605846
0.0588817
0.0590094
0.0605222
0.0624254
0.0636542
0.063406
0.0614368
0.0578366
0.0531571
0.0478795
0.0424986
0.0373721
0.0327719
0.0289137
0.025893
0.0237698
0.0225646
0.0221823
0.0225608
0.0235296
0.0248881
0.0262125
0.0269445
0.0265191
0.0244102
0.0205066
0.0151634
0.00905106
0.00307478
-0.00188206
-0.00530231
-0.00692259
-0.00686103
-0.00538331
-0.00306081
-0.000461157
0.0017388
0.00298431
0.00288547
0.00130353
-0.00148446
-0.00497332
-0.00857197
-0.0116922
-0.0141094
-0.0158101
-0.0170355
-0.0180067
-0.019047
-0.0202463
-0.021517
-0.0226939
-0.0234912
-0.0236475
-0.0231756
-0.0222502
-0.0212664
-0.0206937
-0.0208498
-0.0218571
-0.0234279
-0.0248775
-0.0253823
-0.0241179
-0.0205703
-0.0147138
-0.00711939
0.0012951
0.00936911
0.0162126
0.021544
0.0256773
0.0293603
0.0334121
0.0383989
0.0442545
0.0504508
0.0561518
0.0604689
0.0628121
0.0630799
0.0616114
0.0591293
0.0563678
0.0538054
0.0515848
0.0495021
0.0472441
0.0448323
0.0426139
0.041244
0.0414343
0.0434367
0.0466876
0.0499947
0.0517316
0.0503424
0.0448995
0.0353334
0.0222631
0.00686524
-0.00945442
-0.0253081
-0.0395301
-0.0512315
-0.059844
-0.0651728
-0.0674321
-0.0672302
-0.0654427
-0.0630296
-0.0608328
-0.0594247
-0.05914
-0.0599789
-0.061741
-0.0640081
-0.0664122
-0.0684789
-0.0699137
-0.070512
-0.0702383
-0.0693317
-0.0681287
-0.0671156
-0.0669394
-0.0683822
-0.0724421
-0.0803848
-0.0934297
-0.11241
-0.137296
-0.166257
-0.195107
-0.217234
-0.223774
-0.204249
-0.14786
-0.045934
0.105078
0.300109
0.522994
0.745993
0.933503
1.04939
1.06694
0.977581
0.794982
0.552791
0.295384
0.0657114
-0.105912
-0.208043
-0.247402
-0.242697
-0.216135
-0.18593
-0.162433
-0.148508
-0.142211
-0.140045
-0.139143
-0.138092
-0.136818
-0.135717
-0.135014
-0.134608
-0.134344
-0.133992
-0.133381
-0.132431
-0.131099
-0.129371
-0.127276
-0.12505
-0.122857
-0.121008
-0.11965
-0.118732
-0.118067
-0.117379
-0.11636
-0.1148
-0.11269
-0.110129
-0.107302
-0.104462
-0.101796
-0.0994546
-0.0974805
-0.0958173
-0.094395
-0.0930698
-0.0916746
-0.0901084
-0.0883556
-0.0864744
-0.0846723
-0.0832142
-0.0823707
-0.0822814
-0.0829652
-0.0841761
-0.0855647
-0.0868169
-0.0876929
-0.088104
-0.0881052
-0.0878024
-0.0871765
-0.0861939
-0.0848459
-0.0831638
-0.0813552
-0.0796576
-0.078378
-0.0777625
-0.0778046
-0.0784746
-0.0796227
-0.0810933
-0.0828066
-0.0848657
-0.0874452
-0.090805
-0.0951713
-0.100653
-0.107222
-0.114689
-0.122651
-0.130649
-0.138217
-0.144784
-0.149763
-0.152606
-0.152847
-0.150051
-0.143902
-0.134321
-0.121348
-0.105352
-0.086978
-0.0672497
-0.0474856
-0.029058
-0.013215
-0.000703826
0.00835897
0.0146281
0.0193256
0.02386
0.0294875
0.0369215
0.0462886
0.0571286
0.0685827
0.0797414
0.0899103
0.0986844
0.105934
0.111826
0.116536
0.120383
0.123478
0.126065
0.128242
0.130063
0.131524
0.132619
0.133245
0.13325
0.132502
0.13087
0.128288
0.124761
0.120375
0.115362
0.109999
0.104729
0.0999336
0.0960734
0.093456
0.0921563
0.0919655
0.092537
0.0933599
0.0939293
0.0939681
0.0932992
0.0919769
0.0901277
0.0879292
0.0856151
0.0833709
0.0813521
0.0795899
0.0780863
0.0766099
0.0749398
0.0727852
0.0700217
0.066692
0.0630357
0.0594051
0.0561294
0.0535236
0.0516721
0.0505426
0.0498978
0.0495189
0.0491155
0.0485548
0.0477354
0.0465574
0.0449163
0.0427731
0.0400632
0.0369124
0.0335234
0.0302246
0.0273509
0.0251873
0.0237621
0.0230404
0.0228015
0.0229667
0.0235139
0.0245497
0.026104
0.028118
0.0302607
0.0320356
0.0328891
0.0323239
0.0302809
0.0270534
0.0232666
0.0196301
0.0167324
0.0148315
0.0138215
0.0132265
0.0126225
0.01155
0.00987857
0.00767905
0.00515399
0.00244523
-0.000358062
-0.00319586
-0.00602819
-0.00866814
-0.0107149
-0.0116976
-0.0110762
-0.00853401
-0.00386322
0.00283763
0.0113204
0.0211797
0.031853
0.0427601
0.0534577
0.0635361
0.0728179
0.0812439
0.0887365
0.09526
0.100469
0.10408
0.105783
0.105447
0.103163
0.0992591
0.0941331
0.0883167
0.0823702
0.0770206
0.0730168
0.0711145
0.0717185
0.0746003
0.0787256
0.0824506
0.0839463
0.0817993
0.0755373
0.0656643
0.0534761
0.0405149
0.02795
0.0163311
0.0056258
-0.00444094
-0.0138949
-0.0223462
-0.0290484
-0.0334119
-0.0352138
-0.034941
-0.0334678
-0.0320033
-0.031479
-0.0323464
-0.0344658
-0.037294
-0.0401831
-0.0425778
-0.0442205
-0.0449904
-0.0449609
-0.0442241
-0.0429981
-0.0415003
-0.0404519
-0.0409382
-0.0446473
-0.0535538
-0.0693557
-0.0928095
-0.122777
-0.155738
-0.185733
-0.205024
-0.205568
-0.180577
-0.125972
-0.0405859
0.0745424
0.217168
0.384446
0.572171
0.772585
0.97195
1.14886
1.27585
1.32507
1.27675
1.12755
0.894645
0.613318
0.328342
0.0818478
-0.0976397
-0.201285
-0.238912
-0.232352
-0.206077
-0.17937
-0.162381
-0.156857
-0.159359
-0.165196
-0.170859
-0.174897
-0.177465
-0.179357
-0.181217
-0.183201
-0.185156
-0.186701
-0.187549
-0.187389
-0.186042
-0.18344
-0.179737
-0.175137
-0.170064
-0.164932
-0.160152
-0.156115
-0.153031
-0.150963
-0.149889
-0.149666
-0.150094
-0.150992
-0.152193
-0.153453
-0.154503
-0.15497
-0.154493
-0.152843
-0.150056
-0.146345
-0.142191
-0.138184
-0.134814
-0.132417
-0.13103
-0.130517
-0.130638
-0.131113
-0.131721
-0.132278
-0.132704
-0.132759
-0.13242
-0.131731
-0.130812
-0.129901
-0.129381
-0.129431
-0.130144
-0.131345
-0.132744
-0.13409
-0.135262
-0.136223
-0.137084
-0.138017
-0.139068
-0.140195
-0.141273
-0.142124
-0.142642
-0.142851
-0.142886
-0.143114
-0.143815
-0.14517
-0.147114
-0.149365
-0.151303
-0.152165
-0.151202
-0.147785
-0.141531
-0.132312
-0.120218
-0.105647
-0.0892153
-0.0717588
-0.054146
-0.0373704
-0.0222116
-0.00912617
0.00176129
0.0107901
0.018557
0.025779
0.0331071
0.0410211
0.0496551
0.0590308
0.0688476
0.0787138
0.0881756
0.0967056
0.103852
0.109293
0.112833
0.114461
0.11445
0.113178
0.111113
0.108806
0.106641
0.104891
0.103573
0.102518
0.10149
0.10034
0.0989935
0.0975532
0.0962599
0.0952954
0.0946892
0.0943312
0.0939531
0.0932594
0.0919994
0.0901285
0.0877371
0.0850744
0.0824101
0.0798922
0.0775347
0.0751338
0.0723241
0.0687675
0.0643021
0.0589227
0.0530143
0.0470989
0.0418168
0.03775
0.0351565
0.033917
0.0337586
0.0341419
0.034508
0.034496
0.0339366
0.032807
0.0312349
0.0292978
0.0271693
0.0249666
0.0228289
0.0207627
0.0188378
0.0169657
0.0150516
0.0129684
0.0106633
0.00820004
0.00571501
0.00332847
0.00103879
-0.0011088
-0.00324198
-0.00543447
-0.00765077
-0.00974382
-0.0115129
-0.0127257
-0.0132255
-0.0130562
-0.0122671
-0.0110699
-0.009613
-0.00797109
-0.00620878
-0.00440773
-0.00273678
-0.00125063
-0.000122856
0.000689868
0.00127649
0.00182784
0.00257977
0.00356793
0.00466475
0.0056146
0.00604097
0.00557563
0.00405441
0.00152804
-0.00169097
-0.00508869
-0.00822954
-0.0107312
-0.0123723
-0.0129289
-0.0122295
-0.00976477
-0.00497026
0.00261463
0.0130219
0.0256189
0.0391486
0.052044
0.0629507
0.0711034
0.076651
0.0803879
0.0833925
0.0865967
0.0904046
0.0944945
0.098178
0.100641
0.101296
0.100047
0.0973251
0.0938752
0.0905053
0.0877285
0.0857056
0.0843433
0.0834767
0.0830694
0.0831815
0.0837442
0.0843085
0.0839774
0.0815679
0.0759486
0.0664884
0.0533448
0.0375346
0.0206489
0.00433832
-0.0100807
-0.0218738
-0.0307448
-0.0368299
-0.0404916
-0.0422373
-0.0426266
-0.0422821
-0.0417892
-0.0415283
-0.041682
-0.0421585
-0.0428182
-0.0433845
-0.0437426
-0.0439521
-0.0441154
-0.0443496
-0.0447299
-0.0451478
-0.0454147
-0.0453317
-0.0446631
-0.0434252
-0.0418863
-0.0407616
-0.041196
-0.0448192
-0.0535098
-0.0689818
-0.0921405
-0.122476
-0.157466
-0.192335
-0.220416
-0.234238
-0.226898
-0.19338
-0.130875
-0.0383553
0.0842826
0.236227
0.414393
0.611073
0.811158
0.99111
1.12157
1.17405
1.12988
0.988252
0.76898
0.508822
0.251466
0.0355403
-0.115285
-0.196613
-0.220745
-0.209281
-0.18423
-0.161518
-0.148385
-0.144943
-0.147591
-0.152293
-0.156397
-0.15892
-0.160012
-0.16009
-0.159355
-0.157819
-0.155444
-0.152408
-0.149059
-0.145835
-0.14305
-0.141015
-0.139743
-0.139212
-0.139144
-0.139193
-0.138932
-0.13803
-0.136278
-0.133719
-0.130682
-0.127591
-0.125047
-0.123451
-0.123078
-0.123902
-0.125549
-0.127445
-0.129021
-0.129763
-0.129456
-0.128148
-0.126147
-0.123912
-0.121808
-0.120044
-0.118542
-0.117036
-0.115253
-0.113001
-0.110386
-0.107652
-0.105241
-0.103428
-0.102377
-0.101922
-0.101728
-0.101371
-0.10047
-0.0989336
-0.0968673
-0.0946446
-0.0926949
-0.0914148
-0.0910209
-0.0915104
-0.0926474
-0.0941524
-0.0958648
-0.0977586
-0.0999672
-0.102575
-0.105667
-0.108978
-0.112126
-0.114724
-0.116493
-0.117459
-0.117904
-0.118243
-0.118749
-0.119451
-0.120012
-0.119864
-0.118363
-0.114858
-0.109068
-0.10085
-0.0904725
-0.0784601
-0.0655853
-0.0527696
-0.0409584
-0.0308453
-0.0227274
-0.0163884
-0.0112749
-0.00649171
-0.00120936
0.00508382
0.0125679
0.0211011
0.0303394
0.0398783
0.0494264
0.0588221
0.0679073
0.0765989
0.0846225
0.091686
0.0974302
0.101464
0.103626
0.103986
0.102855
0.100776
0.0983332
0.0960289
0.0942745
0.0931189
0.0924656
0.0919895
0.0914983
0.0907149
0.0895712
0.0881179
0.0865106
0.0849005
0.0834762
0.0823864
0.0815923
0.081017
0.080494
0.0797898
0.0787957
0.0775017
0.0760033
0.0744918
0.0730488
0.0716282
0.0700498
0.0679406
0.0650606
0.0613452
0.0568654
0.0519736
0.0470422
0.0424411
0.0384338
0.0351638
0.0326058
0.0306501
0.0290929
0.0277633
0.0264638
0.0250511
0.0235098
0.0218983
0.0203952
0.0192057
0.0184725
0.018218
0.0183232
0.0184754
0.0184063
0.0178697
0.0168595
0.0155746
0.0143367
0.0133916
0.0127434
0.012126
0.0111264
0.00945811
0.00702421
0.00408342
0.00114659
-0.00116708
-0.00246351
-0.00261114
-0.00185008
-0.000731038
0.000215115
0.000510775
1.80932e-5
-0.00116535
-0.00264893
-0.00400425
-0.00483646
-0.0049661
-0.00447792
-0.00357768
-0.00264373
-0.00194289
-0.00172607
-0.00208652
-0.00303498
-0.00446634
-0.00631148
-0.0084237
-0.0106375
-0.0127196
-0.0144258
-0.0155718
-0.0159974
-0.0156106
-0.0143619
-0.0120802
-0.0085225
-0.00332911
0.00370102
0.0125033
0.0225793
0.0330624
0.0428965
0.051118
0.0572892
0.06154
0.0645399
0.0672015
0.0704293
0.0746903
0.0799775
0.0856811
0.0909498
0.0947439
0.0962926
0.095229
0.0917151
0.0863818
0.0801429
0.0738874
0.0682425
0.0635011
0.0595437
0.0563055
0.0538093
0.0524808
0.0528126
0.0549872
0.0584389
0.0618553
0.0634026
0.0612437
0.0542728
0.0425478
0.0272337
0.0102478
-0.00639054
-0.0211502
-0.0332219
-0.0424296
-0.049122
-0.0539305
-0.0574734
-0.0604515
-0.0633449
-0.0664239
-0.0696314
-0.0726921
-0.0751211
-0.0765197
-0.0765861
-0.0753476
-0.0731181
-0.0703461
-0.0674567
-0.0647934
-0.0626087
-0.0610744
-0.060283
-0.0603547
-0.0614017
-0.0637385
-0.0680192
-0.0752913
-0.0870714
-0.104998
-0.1303
-0.162769
-0.199899
-0.23624
-0.263585
-0.271853
-0.250472
-0.190117
-0.0846294
0.0669086
0.258355
0.475329
0.695417
0.890284
1.03012
1.08984
1.05561
0.929459
0.729936
0.488432
0.241753
0.0235169
-0.142951
-0.248235
-0.296328
-0.300697
-0.278593
-0.24602
-0.214496
-0.190033
-0.174056
-0.165013
-0.160254
-0.157364
-0.154886
-0.152383
-0.15011
-0.14853
-0.147938
-0.148299
-0.149289
-0.150363
-0.150948
-0.150684
-0.149358
-0.146852
-0.143338
-0.139005
-0.134263
-0.129602
-0.125464
-0.122222
-0.119984
-0.118604
-0.117679
-0.116693
-0.115176
-0.112909
-0.109976
-0.10683
-0.104122
-0.10253
-0.102371
-0.103526
-0.105433
-0.107181
-0.107831
-0.106813
-0.104134
-0.100295
-0.0962223
-0.0929347
-0.0910591
-0.0907945
-0.0917147
-0.0930433
-0.0940096
-0.0940786
-0.0932087
-0.0917255
-0.090321
-0.0896662
-0.0902827
-0.0922851
-0.0954587
-0.0992885
-0.103111
-0.106238
-0.108221
-0.108851
-0.108214
-0.106597
-0.104349
-0.101748
-0.0990033
-0.0963872
-0.0941757
-0.092829
-0.0928029
-0.094451
-0.0977227
-0.102176
-0.106958
-0.111076
-0.113582
-0.114079
-0.11252
-0.109327
-0.104963
-0.099805
-0.0940286
-0.0875187
-0.0801854
-0.072168
-0.0639537
-0.0563392
-0.0500851
-0.0458263
-0.0437205
-0.0433518
-0.0439924
-0.0447667
-0.0450597
-0.0444709
-0.0429174
-0.0404026
-0.0369354
-0.0325326
-0.0271949
-0.0210397
-0.014361
-0.0073891
-0.000412486
0.00649599
0.0134507
0.0205871
0.0281463
0.0361834
0.0445321
0.0529463
0.061151
0.0689127
0.0758884
0.0818386
0.0864987
0.0896274
0.0912073
0.0913473
0.0903874
0.0886557
0.0865192
0.0842839
0.0821376
0.0802485
0.0786901
0.0775093
0.0766346
0.0757993
0.0746886
0.0729224
0.0703252
0.0671077
0.0637088
0.0607817
0.0589751
0.0586313
0.0596134
0.0613087
0.0628394
0.0632751
0.061956
0.0587995
0.0541223
0.0486943
0.0433696
0.0389545
0.0359201
0.0343514
0.0340046
0.034347
0.034722
0.0344272
0.0329759
0.0300979
0.0258276
0.0205948
0.0150008
0.009715
0.00539051
0.00241104
0.000816159
0.000229192
0.000165372
4.97538e-5
-0.000350228
-0.00094471
-0.00138515
-0.00135527
-0.000641234
0.000591746
0.00187277
0.00248797
0.00190392
-5.72547e-5
-0.00318693
-0.00689675
-0.0104052
-0.0131119
-0.0147007
-0.0152257
-0.0150778
-0.0148781
-0.0152401
-0.0165813
-0.0190139
-0.0222448
-0.0257257
-0.0286906
-0.0304967
-0.0307043
-0.0292748
-0.0266467
-0.0234282
-0.0203019
-0.0177193
-0.0158806
-0.0146969
-0.0139278
-0.0135254
-0.0136277
-0.0144793
-0.0163136
-0.0192496
-0.0228939
-0.026601
-0.0294315
-0.0305483
-0.0294276
-0.0260356
-0.0208143
-0.014522
-0.00807757
-0.00209413
0.00306571
0.00751508
0.011695
0.0160929
0.021188
0.0271034
0.0337756
0.0408577
0.0479219
0.0545728
0.0605481
0.0657826
0.0703008
0.0740783
0.0769766
0.0788144
0.0793602
0.0785633
0.0765239
0.0736215
0.0703623
0.0672931
0.0647706
0.0629818
0.0620987
0.0619192
0.0621347
0.0620443
0.0606282
0.0567974
0.0495739
0.0385254
0.024031
0.00730403
-0.0098193
-0.0253653
-0.0377679
-0.0462544
-0.050879
-0.0524493
-0.0520746
-0.0509959
-0.0502374
-0.0504899
-0.0519969
-0.0546722
-0.058047
-0.0615635
-0.0646162
-0.0666964
-0.0677053
-0.0678094
-0.067334
-0.0665629
-0.0656372
-0.0645146
-0.0630117
-0.0608302
-0.0578923
-0.0542389
-0.0501114
-0.0459611
-0.0425536
-0.0410278
-0.0429249
-0.0499097
-0.0635239
-0.0845286
-0.112434
-0.144994
-0.177809
-0.204388
-0.216726
-0.205772
-0.162319
-0.0784441
0.0502597
0.221946
0.425958
0.64136
0.838431
0.983626
1.04744
1.01313
0.882847
0.678648
0.437235
0.200176
0.00279636
-0.134036
-0.206894
-0.226867
-0.213014
-0.184871
-0.156883
-0.136424
-0.124908
-0.120298
-0.119661
-0.120742
-0.122393
-0.124361
-0.126633
-0.128908
-0.130822
-0.131899
-0.131855
-0.130564
-0.128145
-0.124939
-0.121515
-0.118512
-0.116548
-0.116069
-0.117164
-0.119415
-0.121919
-0.123636
-0.123477
-0.120827
-0.115785
-0.109097
-0.101894
-0.0954891
-0.0909207
-0.0887256
-0.0888437
-0.0907646
-0.0937256
-0.096941
-0.0997304
-0.101705
-0.102671
-0.102722
-0.102043
-0.101005
-0.0999126
-0.0989527
-0.0981865
-0.0975317
-0.0968529
-0.0961077
-0.0954137
-0.0949409
-0.0949805
-0.0957643
-0.0972279
-0.0991259
-0.100882
-0.101841
-0.101467
-0.0994763
-0.0960191
-0.0916314
-0.0870063
-0.0828658
-0.0797993
-0.0780678
-0.0776176
-0.0782987
-0.0799414
-0.0824046
-0.0855825
-0.0894268
-0.0936994
-0.0981179
-0.102283
-0.105841
-0.108629
-0.110661
-0.112212
-0.113606
-0.115099
-0.116477
-0.117249
-0.116659
-0.113901
-0.10855
-0.100816
-0.09148
-0.0818749
-0.0734081
-0.0671503
-0.0635407
-0.062316
-0.0625301
-0.0630095
-0.0626653
-0.0606974
-0.0567284
-0.0508428
-0.0433645
-0.0347142
-0.0253832
-0.015628
-0.00577952
0.00400732
0.0135826
0.0228639
0.0317574
0.0403007
0.0485389
0.0565891
0.0645362
0.072444
0.0801094
0.0872888
0.0935824
0.0986429
0.102294
0.104578
0.105665
0.105876
0.105483
0.104775
0.104015
0.103489
0.103461
0.103968
0.104932
0.105923
0.106399
0.105857
0.10406
0.101099
0.0973944
0.0934756
0.0898252
0.0866746
0.0839738
0.0814683
0.0790096
0.0764854
0.0740032
0.0718328
0.0701969
0.0691721
0.068671
0.0684086
0.0680597
0.0673957
0.0662925
0.0648401
0.063171
0.0614928
0.0598304
0.0581734
0.0564153
0.0544275
0.0522669
0.0499607
0.0477611
0.0457819
0.0441694
0.0428219
0.0415353
0.040056
0.0383137
0.0364125
0.034691
0.0336171
0.0334885
0.0343675
0.0359407
0.0375494
0.0385454
0.0383337
0.0367455
0.0340057
0.0307551
0.0276868
0.0254631
0.0243259
0.0242006
0.0247431
0.0253097
0.0254561
0.0248741
0.0236221
0.0218407
0.0198982
0.0180704
0.016593
0.0154424
0.0146055
0.0139812
0.0134401
0.0129648
0.0125444
0.0121937
0.0119867
0.0118714
0.0117819
0.0116522
0.0113963
0.0109852
0.0104301
0.00985352
0.00944886
0.00950169
0.0103602
0.0124122
0.0159413
0.020917
0.0271187
0.0341801
0.0415844
0.0488355
0.0556503
0.0620043
0.0680531
0.0741821
0.0806777
0.0876549
0.0948792
0.101798
0.107516
0.111235
0.112367
0.11077
0.10698
0.101843
0.0964802
0.091801
0.0883839
0.0864192
0.0858329
0.0864203
0.0878074
0.0894822
0.0906178
0.0900614
0.0866232
0.079385
0.0680311
0.0530634
0.0358006
0.0179341
0.00124016
-0.012946
-0.0238702
-0.0313854
-0.0357298
-0.0374789
-0.0373703
-0.0361641
-0.034683
-0.0335023
-0.0329558
-0.0331532
-0.0338895
-0.034878
-0.035824
-0.0365284
-0.0369915
-0.0373329
-0.0376962
-0.0380466
-0.0383067
-0.0382188
-0.037674
-0.0367875
-0.0361311
-0.0368886
-0.0408342
-0.0499089
-0.0657702
-0.0892664
-0.119756
-0.154532
-0.188266
-0.213069
-0.218873
-0.194442
-0.128893
-0.0141488
0.151544
0.360822
0.594927
0.824152
1.012
1.1229
1.13173
1.03211
0.83993
0.590228
0.328026
0.0961007
-0.0760115
-0.177799
-0.216822
-0.212533
-0.18752
-0.160133
-0.140683
-0.131598
-0.130389
-0.133146
-0.136751
-0.139717
-0.141966
-0.14408
-0.14635
-0.14873
-0.150866
-0.152436
-0.153237
-0.153266
-0.152614
-0.15144
-0.149879
-0.148059
-0.145986
-0.143736
-0.141299
-0.138747
-0.136149
-0.133513
-0.130914
-0.128318
-0.125696
-0.123002
-0.120327
-0.117763
-0.115506
-0.113599
-0.111987
-0.11056
-0.109066
-0.107383
-0.105511
-0.10352
-0.101603
-0.0999216
-0.0984635
-0.0971377
-0.0958358
-0.0944405
-0.0930019
-0.0915893
-0.0903829
-0.0894307
-0.0887152
-0.0881547
-0.0875617
-0.0868927
-0.0860645
-0.0851211
-0.0841504
-0.0832497
-0.0824754
-0.0820108
-0.0820692
-0.0828024
-0.0843397
-0.0865402
-0.089027
-0.0914068
-0.0932518
-0.0943917
-0.0949852
-0.0953321
-0.0958201
-0.0967604
-0.0982363
-0.100221
-0.102646
-0.105459
-0.108539
-0.11177
-0.114788
-0.11705
-0.11792
-0.116631
-0.112682
-0.10577
-0.0959857
-0.0838058
-0.0700026
-0.0555987
-0.0416453
-0.0289924
-0.0182601
-0.00956445
-0.00264981
0.00304447
0.00816325
0.0131882
0.0184382
0.0239201
0.0295249
0.0351111
0.0407231
0.0465277
0.0527677
0.0597219
0.0674252
0.0758317
0.0846623
0.0933689
0.101567
0.10867
0.114305
0.11819
0.120221
0.120518
0.119474
0.117567
0.115367
0.113386
0.111848
0.110726
0.109747
0.108601
0.106879
0.104395
0.101134
0.0972127
0.0928871
0.0883828
0.0840083
0.08009
0.0769181
0.0746715
0.0733938
0.0729375
0.0729745
0.0731123
0.072986
0.0723046
0.0710077
0.0692138
0.0670588
0.0647771
0.0626259
0.0606791
0.0589784
0.0575247
0.0562804
0.05512
0.0540509
0.0529475
0.0517084
0.0502138
0.0482766
0.0459049
0.0431163
0.0400191
0.0368922
0.0339416
0.031402
0.0293904
0.0278581
0.0267225
0.0258156
0.0250326
0.0241925
0.0232075
0.0220899
0.020969
0.0199345
0.0191632
0.0186795
0.0185057
0.018464
0.0183913
0.0179972
0.0170888
0.0154802
0.0132107
0.0104054
0.00727043
0.00411272
0.00126842
-0.00109223
-0.00280609
-0.00391611
-0.00458319
-0.00505771
-0.00552346
-0.00613396
-0.00687287
-0.0075174
-0.0078308
-0.007555
-0.00661186
-0.00505972
-0.00315517
-0.0012813
0.000219624
0.00121041
0.00174215
0.00221864
0.00326021
0.0054965
0.00942228
0.0151302
0.0223989
0.0306443
0.0391367
0.0473419
0.0549284
0.0619102
0.0685498
0.0751612
0.0818483
0.0883804
0.0942218
0.0986453
0.101013
0.100981
0.0985788
0.0943452
0.0890403
0.0836161
0.0788206
0.075288
0.0734395
0.0732229
0.0740755
0.0749594
0.0744164
0.0710366
0.0638652
0.0527252
0.038568
0.0231201
0.00838181
-0.0039109
-0.0128633
-0.0186131
-0.0220969
-0.024663
-0.0275015
-0.0313522
-0.0362568
-0.0417326
-0.0468935
-0.0510927
-0.0539303
-0.0555395
-0.0564012
-0.0571011
-0.0581892
-0.0598553
-0.0619473
-0.0640075
-0.0654625
-0.0657769
-0.0647714
-0.0625215
-0.0595232
-0.056681
-0.0552768
-0.0571956
-0.0644912
-0.0791802
-0.102664
-0.134866
-0.173315
-0.212288
-0.242839
-0.253272
-0.230282
-0.160994
-0.0363435
0.145116
0.373634
0.626097
0.867281
1.05564
1.15303
1.13596
1.00381
0.780905
0.510597
0.243101
0.0214719
-0.129299
-0.205986
-0.223338
-0.205471
-0.176036
-0.15135
-0.138079
-0.13535
-0.138769
-0.143895
-0.147955
-0.150111
-0.150811
-0.150826
-0.150499
-0.149928
-0.1491
-0.147968
-0.146743
-0.145658
-0.145046
-0.145074
-0.145792
-0.146922
-0.147857
-0.147988
-0.146661
-0.143585
-0.138976
-0.133423
-0.127733
-0.122772
-0.119153
-0.117014
-0.116153
-0.115947
-0.115723
-0.114915
-0.113323
-0.110953
-0.108305
-0.105906
-0.104255
-0.10364
-0.103906
-0.104626
-0.105202
-0.105113
-0.104009
-0.101784
-0.0987194
-0.0951752
-0.0915535
-0.0882679
-0.0855974
-0.08367
-0.0825988
-0.0822773
-0.0825622
-0.0832303
-0.0839436
-0.0844829
-0.0846112
-0.0843278
-0.0836048
-0.0826635
-0.0817061
-0.0810793
-0.0810053
-0.0817022
-0.0833186
-0.0857716
-0.088848
-0.0922454
-0.0955609
-0.0986458
-0.101382
-0.103739
-0.105847
-0.107724
-0.109311
-0.110432
-0.110712
-0.109718
-0.106941
-0.101959
-0.0944802
-0.084496
-0.0721868
-0.0580054
-0.0425513
-0.0265658
-0.0107448
0.00430405
0.0179963
0.0299942
0.0401848
0.048733
0.0559554
0.0624296
0.0685301
0.0746982
0.0810815
0.0875879
0.0940338
0.0999833
0.105083
0.109034
0.111678
0.113049
0.113267
0.112495
0.110976
0.108997
0.106664
0.104202
0.101708
0.0992634
0.0968338
0.0943297
0.091626
0.0886177
0.0852995
0.0817107
0.0780239
0.0743314
0.0707933
0.0674404
0.0643071
0.0614307
0.0588266
0.0565809
0.0547755
0.0534273
0.0524536
0.0516391
0.0507227
0.0495677
0.048034
0.0461237
0.0439458
0.0414769
0.0385813
0.0351122
0.0309287
0.0260232
0.0206586
0.0152375
0.0102447
0.00605532
0.00284451
0.000534852
-0.00105813
-0.00218518
-0.00304014
-0.00364941
-0.00403488
-0.00422775
-0.00427903
-0.00429353
-0.00440568
-0.00465613
-0.00506909
-0.00559971
-0.00612717
-0.00656396
-0.00694547
-0.00734793
-0.0078582
-0.00862677
-0.00972334
-0.0111973
-0.013109
-0.0153649
-0.0178356
-0.0203141
-0.0225755
-0.0243323
-0.0254043
-0.0256207
-0.0249092
-0.023429
-0.0214713
-0.0194187
-0.0177435
-0.0167392
-0.0165881
-0.0172985
-0.0186133
-0.0201895
-0.021683
-0.0228077
-0.0233444
-0.0232854
-0.0228005
-0.022136
-0.0216985
-0.0217158
-0.0220849
-0.0223635
-0.0216661
-0.0190672
-0.013873
-0.00603326
0.00383418
0.0145219
0.0247952
0.0338533
0.0415838
0.0485461
0.0555452
0.0631342
0.0712459
0.0790942
0.0854724
0.0892531
0.0898406
0.0874103
0.0828495
0.0773962
0.0721791
0.0678192
0.0644719
0.0619218
0.0598606
0.0583221
0.0575916
0.0580679
0.0598707
0.0624002
0.0643679
0.0640293
0.0597901
0.050832
0.0374391
0.0209197
0.00316806
-0.0139222
-0.0289241
-0.0409712
-0.049882
-0.0559329
-0.059509
-0.0611755
-0.0616009
-0.061448
-0.0612704
-0.0615072
-0.0622807
-0.063588
-0.0652276
-0.0669871
-0.0687431
-0.0704656
-0.0721638
-0.0737438
-0.0750964
-0.0759848
-0.076246
-0.0758868
-0.0752854
-0.0753224
-0.0773706
-0.0832127
-0.0945957
-0.112894
-0.138513
-0.170273
-0.204914
-0.236586
-0.257094
-0.256252
-0.222937
-0.146625
-0.0205068
0.155174
0.369716
0.600239
0.813418
0.971272
1.04051
1.0027
0.861102
0.641472
0.385618
0.139636
-0.0587227
-0.189153
-0.251162
-0.259955
-0.238119
-0.207145
-0.181492
-0.166989
-0.162746
-0.164692
-0.168394
-0.170893
-0.171029
-0.169122
-0.166123
-0.163113
-0.1609
-0.159905
-0.160162
-0.161226
-0.162383
-0.163005
-0.162652
-0.161157
-0.158633
-0.155345
-0.15165
-0.147889
-0.144459
-0.141693
-0.139842
-0.138939
-0.138834
-0.139167
-0.139503
-0.139456
-0.138836
-0.137617
-0.135817
-0.133395
-0.130287
-0.126431
-0.121923
-0.117045
-0.11228
-0.108173
-0.105141
-0.103429
-0.103005
-0.103594
-0.104866
-0.106444
-0.10791
-0.108895
-0.109066
-0.108269
-0.106554
-0.104174
-0.101525
-0.0990337
-0.0970047
-0.095551
-0.0947702
-0.0946616
-0.0952752
-0.0966559
-0.0986358
-0.100767
-0.102589
-0.103629
-0.103797
-0.103417
-0.103247
-0.104041
-0.106132
-0.109375
-0.112982
-0.115951
-0.117486
-0.117421
-0.116225
-0.114819
-0.114107
-0.114624
-0.116131
-0.117725
-0.118061
-0.11591
-0.110479
-0.101787
-0.0906049
-0.0781783
-0.0658676
-0.054881
-0.04562
-0.0378903
-0.0308551
-0.0232963
-0.0142215
-0.00307468
0.00986004
0.0236113
0.0367465
0.0478597
0.0561321
0.0615205
0.0647256
0.0668328
0.0687379
0.0709317
0.0732879
0.075299
0.0764004
0.076301
0.074996
0.0727861
0.0700467
0.0671115
0.0641535
0.0612836
0.0585251
0.0561305
0.0544193
0.0535033
0.053541
0.054337
0.0555664
0.056795
0.057575
0.0575593
0.0564456
0.0542556
0.051224
0.0478417
0.0448425
0.0427622
0.0418512
0.0418495
0.0420042
0.0413887
0.039257
0.0354209
0.0304486
0.025356
0.0211615
0.0185133
0.0174025
0.0170586
0.0164552
0.0149085
0.0120851
0.00845303
0.00477937
0.00185523
0.000209567
-0.000117836
0.000489051
0.00148641
0.00234395
0.00269498
0.00220882
0.000878602
-0.00117171
-0.00363822
-0.00598167
-0.00769181
-0.00832467
-0.00783636
-0.00667795
-0.00555334
-0.00518617
-0.00605792
-0.00822532
-0.0112232
-0.0142524
-0.0166091
-0.0177261
-0.0175341
-0.0164514
-0.0151318
-0.0144173
-0.0149569
-0.0169238
-0.0200106
-0.0234545
-0.0262496
-0.0274458
-0.0265404
-0.0237051
-0.0197399
-0.0159185
-0.0134986
-0.0133795
-0.0156738
-0.0197253
-0.0243599
-0.0282134
-0.0301615
-0.0294803
-0.025984
-0.0197988
-0.0113447
-0.00129349
0.00947662
0.0199905
0.0292602
0.03658
0.0418886
0.0457854
0.0493482
0.0535821
0.0588997
0.0648845
0.0703439
0.0737888
0.0741584
0.0713551
0.0662722
0.0603914
0.0550173
0.050693
0.0469951
0.0428228
0.0371544
0.0298204
0.0218638
0.0151672
0.0118047
0.0130166
0.0184718
0.0262346
0.0333987
0.0370022
0.0351248
0.0274825
0.0152333
0.000603368
-0.0139954
-0.0266496
-0.0363049
-0.0428084
-0.0464969
-0.0480523
-0.0481885
-0.0475915
-0.0469111
-0.0467198
-0.0474871
-0.049362
-0.0521655
-0.0554717
-0.0586552
-0.0610789
-0.0622543
-0.062026
-0.0605803
-0.0584126
-0.0563473
-0.055285
-0.0563489
-0.0607597
-0.0697612
-0.084497
-0.105698
-0.13288
-0.16347
-0.192099
-0.210662
-0.208958
-0.176099
-0.102442
0.0179391
0.185244
0.392057
0.622555
0.853064
1.05456
1.19716
1.25601
1.21741
1.0832
0.871698
0.614307
0.348678
0.110084
-0.07593
-0.197889
-0.258569
-0.27138
-0.254567
-0.225616
-0.197461
-0.177085
-0.166174
-0.162966
-0.164381
-0.167613
-0.170702
-0.172799
-0.173809
-0.174077
-0.174003
-0.173911
-0.174018
-0.174161
-0.174187
-0.173835
-0.172924
-0.171443
-0.169614
-0.167684
-0.165894
-0.164369
-0.163042
-0.16172
-0.160257
-0.158642
-0.157042
-0.155822
-0.155201
-0.155272
-0.155801
-0.156246
-0.156049
-0.154771
-0.152188
-0.148446
-0.143935
-0.139178
-0.134558
-0.130474
-0.126994
-0.124166
-0.122005
-0.120519
-0.119798
-0.12001
-0.121336
-0.123857
-0.127437
-0.131624
-0.135749
-0.139134
-0.141267
-0.141895
-0.1413
-0.13993
-0.138294
-0.136778
-0.135296
-0.133611
-0.131474
-0.128813
-0.12597
-0.123529
-0.122225
-0.12257
-0.124912
-0.129154
-0.134934
-0.141758
-0.149032
-0.156217
-0.162763
-0.168281
-0.172411
-0.175005
-0.175972
-0.175277
-0.172891
-0.168651
-0.162343
-0.153658
-0.142338
-0.128271
-0.111746
-0.0933805
-0.0741882
-0.0552982
-0.0377982
-0.0223967
-0.0093139
0.00167718
0.0111963
0.0199391
0.0285563
0.0374922
0.0468747
0.0566633
0.0665498
0.0761527
0.0850426
0.092853
0.0994641
0.104892
0.109404
0.113277
0.116832
0.12021
0.123432
0.126428
0.129131
0.131498
0.133597
0.135471
0.137008
0.13799
0.138059
0.136908
0.134429
0.130847
0.126605
0.122351
0.118702
0.115978
0.114235
0.113259
0.112619
0.111897
0.110698
0.108914
0.106559
0.10388
0.101216
0.0988772
0.0971156
0.0960169
0.0955098
0.0954359
0.0956589
0.0959499
0.0961918
0.096123
0.0955196
0.0941012
0.0916342
0.0880604
0.0835612
0.0784684
0.0732436
0.0683495
0.0640399
0.060326
0.0570093
0.053873
0.0508474
0.0480069
0.0456544
0.0441942
0.0438173
0.0445127
0.045941
0.0475943
0.0489191
0.0496389
0.0496656
0.0492558
0.0487505
0.0485114
0.0485838
0.0488224
0.048886
0.0483766
0.0470539
0.0449389
0.0422875
0.0394014
0.0366053
0.0341259
0.0320254
0.0302679
0.0287268
0.0273788
0.0261437
0.0249153
0.0237279
0.0226248
0.0217488
0.0212653
0.021373
0.0220698
0.0232634
0.0246408
0.0259519
0.0269773
0.0277656
0.0285308
0.0296955
0.0317198
0.0350379
0.039851
0.0460536
0.0533361
0.061109
0.0686063
0.0750228
0.0797001
0.0823166
0.0829476
0.0822707
0.0812993
0.0811026
0.082501
0.0857108
0.0902294
0.0949022
0.0983682
0.099512
0.0979265
0.0939893
0.0887572
0.0835006
0.079296
0.0767372
0.0759631
0.0768084
0.0790602
0.0824825
0.086559
0.0904308
0.0927191
0.0917636
0.0862194
0.0755388
0.060372
0.0423196
0.0235467
0.00612113
-0.00854014
-0.0198677
-0.0279482
-0.033296
-0.0365149
-0.0381453
-0.0386935
-0.0386863
-0.0385752
-0.0387531
-0.0393712
-0.0404054
-0.0415313
-0.0423612
-0.0425783
-0.042034
-0.0407366
-0.0389247
-0.0369175
-0.0349521
-0.0333803
-0.0326237
-0.0333298
-0.0362141
-0.0420315
-0.0512747
-0.0641047
-0.0803612
-0.0998187
-0.12229
-0.147513
-0.174491
-0.200347
-0.219434
-0.223161
-0.20053
-0.139897
-0.0315811
0.128505
0.33539
0.572787
0.812947
1.01994
1.15668
1.19405
1.11996
0.94449
0.698709
0.427004
0.174978
-0.0223658
-0.148525
-0.206489
-0.213707
-0.193503
-0.166675
-0.146288
-0.136774
-0.136388
-0.140787
-0.145949
-0.149474
-0.150716
-0.150126
-0.148437
-0.146123
-0.143462
-0.140487
-0.13727
-0.133925
-0.13062
-0.127606
-0.125169
-0.123444
-0.12251
-0.122162
-0.122107
-0.121966
-0.121526
-0.120733
-0.119663
-0.118532
-0.117518
-0.116714
-0.116031
-0.115253
-0.114105
-0.112391
-0.109996
-0.106972
-0.103512
-0.0999477
-0.0965828
-0.093791
-0.0917941
-0.0907784
-0.0907717
-0.0915883
-0.092932
-0.094411
-0.0955866
-0.0962496
-0.0963101
-0.0958829
-0.0951482
-0.0942878
-0.0933584
-0.0922624
-0.090852
-0.089012
-0.086719
-0.0841261
-0.0815098
-0.0791238
-0.0772545
-0.0760016
-0.0754914
-0.0757566
-0.0767701
-0.0785278
-0.0809214
-0.0837713
-0.086764
-0.0896058
-0.0919998
-0.0938247
-0.0951958
-0.096136
-0.0968623
-0.0974976
-0.0980756
-0.0985727
-0.0989626
-0.0991057
-0.0987779
-0.097551
-0.0948783
-0.0900395
-0.0824482
-0.0718674
-0.0584486
-0.0430271
-0.0268768
-0.0113816
0.00218844
0.0131963
0.0216967
0.0283878
0.0343475
0.0405867
0.0477999
0.0562054
0.0656142
0.075497
0.0853244
0.0946137
0.102967
0.110118
0.115922
0.120337
0.123549
0.125881
0.127762
0.129523
0.131484
0.133726
0.136064
0.138152
0.139624
0.140001
0.138914
0.136079
0.131535
0.125651
0.119078
0.112709
0.10725
0.103134
0.100276
0.0982314
0.0965254
0.0947687
0.0929501
0.0913032
0.0901546
0.0897135
0.0898186
0.09014
0.0903609
0.0902612
0.0898006
0.0890104
0.0878701
0.0862325
0.0838363
0.0804435
0.0760489
0.0708667
0.0651865
0.0593691
0.053658
0.0481362
0.0428603
0.0378874
0.0334391
0.029888
0.0275363
0.0265883
0.0269177
0.0281473
0.0296607
0.0308496
0.0313039
0.0308485
0.0295331
0.0276628
0.0254767
0.0231972
0.0209578
0.0188974
0.0170554
0.0155952
0.0145363
0.0139339
0.0137156
0.0137572
0.0138246
0.0138064
0.013666
0.0133945
0.013184
0.0130761
0.0130734
0.0131123
0.012957
0.0124115
0.0113979
0.00991451
0.00804685
0.00600931
0.0040054
0.00222184
0.000851388
5.61023e-5
-6.8822e-5
0.000417314
0.00147269
0.00280557
0.00410418
0.00508209
0.00562848
0.00590274
0.00645646
0.00801752
0.0113585
0.0170247
0.0250112
0.0348853
0.045745
0.056503
0.0663062
0.0746806
0.081639
0.087578
0.0930297
0.0984761
0.104098
0.109707
0.114736
0.118443
0.120135
0.11933
0.11594
0.110302
0.10304
0.0949233
0.0868419
0.0797143
0.07445
0.0718722
0.0724843
0.0762184
0.0821384
0.0884592
0.0929905
0.0936575
0.0891523
0.0793794
0.0654134
0.0491343
0.0326732
0.0176616
0.00502161
-0.00506163
-0.0129071
-0.0189901
-0.0236837
-0.0271563
-0.0295057
-0.0308863
-0.0314695
-0.031586
-0.0316747
-0.0321005
-0.0329795
-0.0342789
-0.0358124
-0.0373486
-0.0387414
-0.0399824
-0.0412982
-0.0429894
-0.0451632
-0.0475586
-0.0495266
-0.0502907
-0.0491877
-0.0462359
-0.042368
-0.0395933
-0.0406358
-0.0482994
-0.0646725
-0.090561
-0.124736
-0.163488
-0.200567
-0.227488
-0.234291
-0.210478
-0.146341
-0.034804
0.126306
0.331327
0.564697
0.80034
1.00417
1.14031
1.17989
1.11004
0.939513
0.698102
0.429279
0.178471
-0.0190934
-0.146313
-0.205562
-0.213908
-0.194609
-0.168495
-0.148835
-0.140187
-0.140917
-0.146786
-0.153701
-0.159211
-0.162559
-0.163931
-0.163852
-0.162799
-0.16112
-0.159169
-0.157353
-0.155908
-0.154781
-0.153668
-0.152072
-0.149584
-0.146052
-0.141661
-0.136854
-0.132163
-0.12799
-0.124407
-0.121251
-0.11821
-0.115146
-0.112163
-0.109652
-0.108089
-0.107845
-0.108958
-0.111072
-0.113445
-0.115429
-0.116444
-0.116326
-0.115347
-0.113915
-0.112521
-0.111498
-0.110881
-0.110553
-0.110206
-0.109656
-0.108821
-0.107784
-0.106718
-0.105747
-0.104883
-0.103956
-0.102787
-0.101168
-0.0990065
-0.0963547
-0.0933899
-0.0903409
-0.08742
-0.0848539
-0.0828375
-0.0815116
-0.0810597
-0.0816386
-0.0833525
-0.0861246
-0.0896925
-0.0935141
-0.0970317
-0.0997079
-0.101296
-0.101842
-0.101628
-0.101165
-0.100842
-0.100853
-0.101136
-0.101261
-0.100661
-0.0986274
-0.0946929
-0.0885853
-0.0803543
-0.0703423
-0.0591468
-0.0473843
-0.0357517
-0.0248337
-0.015015
-0.00649976
0.00078711
0.00711433
0.0128924
0.0185793
0.0245955
0.0311471
0.0382638
0.0458022
0.0535069
0.0611434
0.0685252
0.0754897
0.0820397
0.0881611
0.0938107
0.0988829
0.103201
0.106545
0.108757
0.109888
0.110187
0.110017
0.109774
0.109689
0.109665
0.109448
0.108688
0.106994
0.104216
0.100518
0.0962277
0.0918616
0.0878639
0.0845961
0.0820908
0.0802647
0.0788534
0.0776257
0.0763534
0.0748892
0.0732418
0.0713868
0.0693568
0.0671498
0.0647876
0.0623371
0.0599041
0.0576483
0.0556593
0.0539948
0.0526474
0.051493
0.0503306
0.0490536
0.0476291
0.045984
0.0441282
0.0419845
0.0394398
0.0362789
0.0324699
0.02817
0.0236699
0.0193617
0.0156046
0.0125309
0.0100348
0.00777287
0.00539248
0.00267225
-0.000374638
-0.00348779
-0.00632042
-0.00853648
-0.00998297
-0.0108301
-0.011367
-0.0119999
-0.0130136
-0.0144913
-0.0162832
-0.0180282
-0.019307
-0.0197821
-0.0193761
-0.0181828
-0.0165361
-0.0149445
-0.0138683
-0.0137007
-0.0146038
-0.0164795
-0.0190228
-0.0216566
-0.0238373
-0.0252006
-0.0255776
-0.0251324
-0.0241587
-0.023072
-0.0221202
-0.0214149
-0.0208274
-0.0201368
-0.0191636
-0.0177859
-0.0161473
-0.0144036
-0.0127585
-0.0114595
-0.0105681
-0.0100696
-0.00983609
-0.00955422
-0.00888495
-0.00729009
-0.00435617
0.000256158
0.00654009
0.0141361
0.0223542
0.0304469
0.0377885
0.044076
0.049435
0.0543515
0.059283
0.064717
0.0706045
0.0765603
0.0819114
0.0858133
0.0877111
0.0872279
0.0843878
0.0796401
0.0736907
0.0675447
0.062304
0.0587605
0.0573672
0.0579078
0.0596796
0.0616273
0.0630062
0.0636399
0.0639773
0.0648546
0.0667376
0.0693303
0.0714172
0.0711347
0.0668135
0.0575047
0.0434814
0.0261111
0.00733213
-0.0109545
-0.0273181
-0.0408964
-0.0514057
-0.058823
-0.0632723
-0.0650673
-0.0648103
-0.0632586
-0.0612792
-0.0597428
-0.0591477
-0.0595829
-0.0608181
-0.0624466
-0.0640842
-0.0655806
-0.0668351
-0.0678552
-0.068671
-0.0693771
-0.0700895
-0.0711394
-0.073286
-0.0776334
-0.0857669
-0.0991849
-0.119163
-0.146117
-0.17884
-0.214329
-0.247646
-0.272778
-0.283929
-0.276611
-0.248561
-0.199169
-0.128229
-0.03431
0.0856663
0.234755
0.412492
0.610614
0.810192
0.982603
1.09495
1.11949
1.04305
0.872993
0.637141
0.376454
0.13393
-0.0571833
-0.180699
-0.238789
-0.24747
-0.22845
-0.201522
-0.179502
-0.16712
-0.163292
-0.164362
-0.166789
-0.168563
-0.169283
-0.169303
-0.169112
-0.168723
-0.167916
-0.166414
-0.164229
-0.161436
-0.158271
-0.155007
-0.151802
-0.148665
-0.145652
-0.142807
-0.140209
-0.137978
-0.136235
-0.134978
-0.134252
-0.133987
-0.134077
-0.134405
-0.134775
-0.134867
-0.134446
-0.133416
-0.131833
-0.129998
-0.128288
-0.126989
-0.126133
-0.125521
-0.124592
-0.122981
-0.12047
-0.117218
-0.113638
-0.110337
-0.107788
-0.106315
-0.106077
-0.107011
-0.108982
-0.111718
-0.11473
-0.117482
-0.119381
-0.119855
-0.118706
-0.116074
-0.112412
-0.108439
-0.104826
-0.102216
-0.100799
-0.100514
-0.10098
-0.101563
-0.101751
-0.101171
-0.0998313
-0.0981577
-0.0969127
-0.0968598
-0.0986107
-0.102343
-0.10773
-0.113988
-0.120151
-0.125285
-0.128672
-0.12986
-0.128669
-0.125071
-0.119085
-0.110744
-0.100204
-0.0876958
-0.0737614
-0.0590624
-0.0444392
-0.0308173
-0.0190618
-0.00985585
-0.0034777
0.000317796
0.00225634
0.00358273
0.00572705
0.00982052
0.0164794
0.0254763
0.0359544
0.0464374
0.0556389
0.0626674
0.0672394
0.069744
0.070906
0.071424
0.0717152
0.0717521
0.0712975
0.070116
0.0681795
0.0657849
0.0633825
0.0613831
0.0600299
0.0593705
0.0592631
0.0596353
0.06052
0.0619382
0.0638483
0.066047
0.0679882
0.0690475
0.0685543
0.06624
0.0620987
0.0565048
0.0501319
0.0435831
0.0375075
0.0322591
0.0280239
0.0249634
0.0230105
0.0219693
0.021566
0.0213207
0.0206657
0.0192075
0.0167738
0.0134579
0.00973723
0.00609108
0.00300166
0.000687934
-0.000866139
-0.00196103
-0.00282631
-0.00362679
-0.00440239
-0.00515297
-0.00585792
-0.00665918
-0.00780086
-0.00945147
-0.0118225
-0.0148284
-0.0181515
-0.0214223
-0.0241449
-0.0260623
-0.0271534
-0.0276066
-0.0278417
-0.0284278
-0.0298383
-0.0323697
-0.0359953
-0.0401491
-0.0440951
-0.0468581
-0.0477295
-0.046391
-0.0431974
-0.0389587
-0.0347372
-0.031437
-0.02957
-0.029115
-0.0295993
-0.0303261
-0.0306978
-0.0304583
-0.0297376
-0.0289447
-0.0287543
-0.0296181
-0.0317064
-0.0347722
-0.0380835
-0.0406669
-0.0415276
-0.0398723
-0.0353855
-0.0283599
-0.0194712
-0.00989921
-0.000902916
0.00636955
0.0112379
0.0136165
0.0141406
0.0138762
0.0142293
0.016477
0.0213962
0.0291186
0.0390147
0.0499583
0.0606189
0.0696932
0.076302
0.0799924
0.080722
0.0788046
0.0747922
0.0692975
0.0629105
0.056128
0.0491926
0.0423427
0.0357451
0.0299919
0.0259231
0.0244655
0.0261775
0.0306773
0.0365336
0.0414533
0.042891
0.0390192
0.0294155
0.0151289
-0.00146839
-0.0175718
-0.0309023
-0.0401918
-0.0453939
-0.0474878
-0.0478889
-0.048028
-0.0490288
-0.051369
-0.0550303
-0.0595958
-0.0644535
-0.0691336
-0.0733161
-0.0769301
-0.080046
-0.0828982
-0.0855276
-0.0877034
-0.0890477
-0.0890314
-0.0873665
-0.0840116
-0.0794679
-0.074714
-0.0712873
-0.071125
-0.0762794
-0.08859
-0.108963
-0.136733
-0.169023
-0.20031
-0.222869
-0.227669
-0.205666
-0.149279
-0.0537459
0.0817791
0.253553
0.452909
0.666632
0.87785
1.06751
1.21647
1.308
1.33015
1.27801
1.15471
0.971627
0.747208
0.504605
0.268197
0.0597816
-0.10499
-0.21896
-0.283561
-0.307212
-0.302522
-0.282613
-0.258411
-0.237098
-0.2221
-0.213972
-0.211562
-0.213023
-0.216498
-0.220344
-0.223301
-0.224677
-0.22435
-0.222752
-0.220491
-0.218139
-0.215861
-0.2135
-0.210658
-0.207143
-0.203175
-0.199356
-0.196415
-0.1948
-0.194602
-0.195387
-0.196338
-0.196702
-0.195984
-0.194077
-0.191382
-0.188438
-0.185913
-0.184398
-0.184089
-0.185069
-0.187075
-0.189732
-0.192581
-0.195065
-0.196907
-0.197826
-0.19786
-0.197147
-0.195888
-0.194268
-0.192277
-0.189753
-0.186547
-0.182651
-0.178196
-0.173587
-0.169508
-0.166576
-0.165235
-0.165701
-0.167748
-0.170933
-0.17463
-0.178038
-0.18057
-0.18173
-0.181311
-0.179375
-0.17635
-0.172958
-0.169975
-0.168293
-0.168431
-0.170585
-0.174529
-0.179613
-0.185024
-0.190014
-0.193992
-0.196785
-0.198584
-0.199788
-0.200562
-0.200669
-0.199333
-0.195411
-0.187865
-0.176319
-0.161267
-0.14418
-0.127003
-0.111568
-0.0989901
-0.0894222
-0.0820275
-0.0755521
-0.0687194
-0.0605888
-0.0508847
-0.039788
-0.0277961
-0.0156007
-0.00366773
0.00771804
0.0184674
0.0286907
0.0385544
0.048096
0.0572793
0.0658913
0.0735869
0.0800103
0.0848471
0.0879579
0.0894336
0.0895009
0.0885827
0.0871217
0.0855782
0.0843444
0.0836447
0.0836202
0.0842794
0.0854745
0.0869651
0.088389
0.0893749
0.0897597
0.0893967
0.0884353
0.0871163
0.0857812
0.0846681
0.0838308
0.0830976
0.0821649
0.0807096
0.0784661
0.0753461
0.0716025
0.0675205
0.0635095
0.0598333
0.056647
0.0538758
0.0513337
0.0488926
0.046412
0.0438627
0.0412456
0.03858
0.0359487
0.0333273
0.030736
0.0283391
0.0262558
0.0248069
0.0242449
0.0247486
0.0263573
0.0287964
0.0315484
0.0340053
0.0355506
0.0358654
0.0348088
0.032518
0.0293611
0.0257093
0.0219953
0.018548
0.0156188
0.0132439
0.011408
0.0100088
0.00889314
0.00796598
0.00721474
0.00675109
0.00669905
0.0070825
0.00782868
0.0086956
0.00937621
0.00960022
0.00919203
0.00822416
0.00698625
0.00579203
0.00502345
0.00481659
0.00526659
0.00630684
0.00769772
0.00930645
0.0109008
0.0122519
0.0130041
0.0128361
0.0115219
0.00902365
0.00570575
0.00227029
-0.000264407
-0.00081767
0.00143004
0.00678198
0.0149733
0.025145
0.0361188
0.0466383
0.055789
0.0630089
0.0682926
0.0720519
0.0748888
0.0775793
0.0805997
0.0842471
0.0885111
0.0930134
0.0972474
0.100608
0.102597
0.102959
0.10166
0.0988616
0.0949052
0.0902957
0.0854764
0.0810322
0.0775004
0.0753807
0.0748253
0.0755314
0.0765434
0.076542
0.0740725
0.0680832
0.0581987
0.0449636
0.0297526
0.0142406
8.60883e-5
-0.0116423
-0.0205134
-0.0266843
-0.0307044
-0.0333156
-0.0351482
-0.0366843
-0.0382888
-0.0400403
-0.0419895
-0.0441274
-0.0464026
-0.0488414
-0.0513633
-0.0538366
-0.0560663
-0.0578572
-0.0588074
-0.0586653
-0.0573026
-0.0547623
-0.0513874
-0.0477658
-0.0449031
-0.0442218
-0.0476075
-0.0568774
-0.073659
-0.0986138
-0.130788
-0.166775
-0.200382
-0.222875
-0.223745
-0.192045
-0.117955
0.00497288
0.177063
0.390008
0.625147
0.853806
1.04086
1.15181
1.16154
1.06266
0.869393
0.615399
0.345334
0.102921
-0.0802412
-0.191151
-0.235377
-0.231651
-0.203219
-0.170147
-0.144739
-0.131093
-0.127526
-0.129949
-0.134558
-0.139007
-0.142456
-0.145082
-0.147115
-0.148567
-0.149254
-0.149014
-0.147769
-0.145652
-0.142866
-0.139643
-0.136088
-0.132202
-0.127943
-0.123283
-0.118356
-0.113548
-0.109402
-0.106488
-0.105239
-0.105683
-0.107563
-0.110237
-0.112969
-0.115202
-0.116611
-0.117144
-0.116929
-0.116075
-0.114656
-0.112593
-0.109871
-0.10655
-0.102975
-0.0995835
-0.0969137
-0.0952648
-0.0947575
-0.095106
-0.0958803
-0.0966787
-0.0972395
-0.0975454
-0.097681
-0.0978268
-0.097927
-0.0979056
-0.0975036
-0.0965734
-0.095155
-0.0934617
-0.0917044
-0.0900883
-0.0885844
-0.0870862
-0.0853735
-0.0833597
-0.0811175
-0.0789146
-0.0769975
-0.0757774
-0.0754995
-0.0764325
-0.0786525
-0.0823193
-0.0872873
-0.0932569
-0.0997567
-0.106191
-0.112022
-0.116802
-0.120295
-0.122341
-0.122763
-0.121205
-0.117241
-0.110381
-0.100424
-0.0875242
-0.0723373
-0.0557232
-0.0386184
-0.0218253
-0.00587095
0.00916789
0.0232111
0.036399
0.0487303
0.060085
0.070267
0.0791096
0.0864969
0.0924771
0.0972606
0.101152
0.104424
0.107344
0.110028
0.112512
0.114773
0.116692
0.118234
0.119285
0.119752
0.119566
0.118722
0.117296
0.115406
0.113245
0.111147
0.109266
0.107811
0.106901
0.106542
0.106592
0.106769
0.106716
0.106113
0.104744
0.10248
0.0993766
0.0955684
0.0912351
0.0864889
0.0814626
0.0762687
0.071125
0.0662934
0.0620794
0.0586843
0.0561632
0.0544386
0.0532682
0.0523893
0.0516172
0.050856
0.0500844
0.0492673
0.0482153
0.0466808
0.0444436
0.0413611
0.0375448
0.0333377
0.0291711
0.0255481
0.0228328
0.0211021
0.0201442
0.0195823
0.0189204
0.017786
0.0161003
0.0140268
0.0118543
0.00999278
0.00871278
0.00804098
0.00779071
0.00761415
0.00732576
0.00677703
0.00603064
0.00524148
0.00455832
0.0040771
0.0037131
0.00334716
0.00285953
0.00220726
0.0015096
0.000889999
0.000432382
8.15378e-5
-0.000370929
-0.00118465
-0.00250695
-0.00427462
-0.00616934
-0.00783754
-0.00885532
-0.00910012
-0.0087268
-0.00810692
-0.00773221
-0.0078047
-0.00826536
-0.00861061
-0.00810343
-0.00577578
-0.000950101
0.00652146
0.01627
0.0273299
0.0386049
0.0490677
0.0582125
0.0660446
0.0729071
0.0792073
0.0849576
0.089759
0.0929242
0.0938466
0.0921527
0.0880407
0.08217
0.0754457
0.0688607
0.0632913
0.0596016
0.058473
0.0602472
0.0646808
0.070761
0.0766046
0.0800998
0.0794788
0.0738689
0.06371
0.0503957
0.0358578
0.0217518
0.00909756
-0.00181137
-0.0112149
-0.0193138
-0.0260906
-0.0313953
-0.0351292
-0.0374168
-0.0386132
-0.0394329
-0.0404377
-0.0420462
-0.0443422
-0.0470707
-0.0498451
-0.0522761
-0.0540926
-0.0551642
-0.0554324
-0.0549854
-0.0540923
-0.0532033
-0.0532283
-0.0555774
-0.0620913
-0.0746652
-0.0946623
-0.122139
-0.15495
-0.188519
-0.216235
-0.230738
-0.225807
-0.198039
-0.147467
-0.0767157
0.0111554
0.115421
0.238719
0.385441
0.557662
0.749729
0.944186
1.11187
1.2177
1.23111
1.13738
0.944807
0.684524
0.402307
0.145431
-0.0506603
-0.170709
-0.220378
-0.220176
-0.19565
-0.168389
-0.150818
-0.145896
-0.150258
-0.158591
-0.166464
-0.171628
-0.173855
-0.17395
-0.172845
-0.171081
-0.168902
-0.166481
-0.164055
-0.161766
-0.159789
-0.158048
-0.15642
-0.15462
-0.152383
-0.14955
-0.146223
-0.142611
-0.13908
-0.135983
-0.133599
-0.132065
-0.131355
-0.131282
-0.131596
-0.131929
-0.131986
-0.131534
-0.130499
-0.128975
-0.127195
-0.12553
-0.124244
-0.123513
-0.123275
-0.123346
-0.12341
-0.123107
-0.122209
-0.120601
-0.118374
-0.115858
-0.113444
-0.111587
-0.110635
-0.110714
-0.111763
-0.113477
-0.11544
-0.117248
-0.118545
-0.119175
-0.119115
-0.118427
-0.117116
-0.115329
-0.113207
-0.110899
-0.108793
-0.107254
-0.106701
-0.107384
-0.10923
-0.111977
-0.115076
-0.11803
-0.12034
-0.12176
-0.122204
-0.12164
-0.120122
-0.117672
-0.114254
-0.109829
-0.104403
-0.0979393
-0.0904469
-0.0819114
-0.0722225
-0.0612659
-0.0490662
-0.0357497
-0.0217239
-0.00762883
0.00597955
0.0185364
0.0297938
0.0397074
0.0484794
0.056421
0.0638174
0.070935
0.0778424
0.0845668
0.0910609
0.0971313
0.102642
0.107438
0.111414
0.114482
0.116633
0.117844
0.118089
0.117321
0.115497
0.112646
0.108884
0.104412
0.0996061
0.0949016
0.0907064
0.0873138
0.0848482
0.0832238
0.0822422
0.081611
0.0810579
0.080402
0.0795497
0.0784424
0.0769834
0.0751459
0.0729011
0.0701759
0.0670288
0.0635402
0.0597778
0.0557972
0.0516156
0.0472469
0.0428101
0.0384946
0.0345289
0.0311808
0.0284856
0.0263825
0.0245442
0.0225722
0.0201902
0.017303
0.0140455
0.01073
0.00776931
0.00546382
0.00397787
0.0032908
0.00325664
0.00356272
0.00386484
0.00387338
0.0034048
0.00236837
0.000903287
-0.000808331
-0.00259425
-0.00422807
-0.00566523
-0.00695615
-0.00815418
-0.00941072
-0.0107918
-0.0123075
-0.0138615
-0.0152578
-0.0163104
-0.016815
-0.0167499
-0.016185
-0.0153082
-0.0143237
-0.0133623
-0.0123906
-0.0113389
-0.0100465
-0.00837881
-0.00635659
-0.0041707
-0.002074
-0.000396291
0.000677197
0.00123654
0.00143434
0.00159295
0.00201447
0.00288606
0.00431603
0.00643336
0.00937187
0.0133599
0.0185939
0.0250504
0.0323859
0.0400509
0.0473757
0.0538986
0.0596504
0.0650118
0.0705347
0.0767114
0.0835352
0.090451
0.09655
0.100809
0.10253
0.101516
0.0981653
0.0931729
0.0875193
0.0820142
0.0774253
0.0744355
0.0735288
0.0747206
0.0774223
0.0802987
0.0815511
0.079342
0.0724591
0.0607879
0.0453533
0.0281327
0.0112013
-0.00361605
-0.0153717
-0.0239823
-0.029905
-0.0339274
-0.0367422
-0.0388584
-0.0405271
-0.0417543
-0.0425412
-0.0427621
-0.0425581
-0.0419937
-0.0412964
-0.0408195
-0.0408259
-0.0414605
-0.0426178
-0.0440422
-0.0453633
-0.0461867
-0.0464569
-0.0467436
-0.048452
-0.0537772
-0.0651449
-0.0846146
-0.112895
-0.148245
-0.185792
-0.217216
-0.231718
-0.217424
-0.163314
-0.0614707
0.0909064
0.289904
0.524254
0.7752
1.01782
1.22344
1.36348
1.41458
1.36398
1.21379
0.982445
0.702083
0.412216
0.150815
-0.0538582
-0.188657
-0.256388
-0.272267
-0.25711
-0.230699
-0.206939
-0.192508
-0.187771
-0.189514
-0.19381
-0.197766
-0.199974
-0.20018
-0.198775
-0.196265
-0.193147
-0.189775
-0.186539
-0.183705
-0.181529
-0.180094
-0.179355
-0.179091
-0.17912
-0.17924
-0.179283
-0.179237
-0.179116
-0.178925
-0.178613
-0.178077
-0.177178
-0.175789
-0.173868
-0.171532
-0.16901
-0.166507
-0.164061
-0.161624
-0.158977
-0.155918
-0.152379
-0.148579
-0.144817
-0.141452
-0.138667
-0.136406
-0.134442
-0.132507
-0.130556
-0.128785
-0.127643
-0.127522
-0.128579
-0.130679
-0.133342
-0.135924
-0.137939
-0.139047
-0.139259
-0.138756
-0.137794
-0.136686
-0.135679
-0.13481
-0.134021
-0.133185
-0.132145
-0.130804
-0.129285
-0.12787
-0.126955
-0.127022
-0.128284
-0.130826
-0.134385
-0.138652
-0.143131
-0.147331
-0.150818
-0.153125
-0.153761
-0.152268
-0.148143
-0.141068
-0.130888
-0.117658
-0.101766
-0.0837966
-0.0645999
-0.0452027
-0.026599
-0.00966593
0.00513691
0.0178218
0.0288608
0.0389867
0.0488774
0.0589487
0.0690653
0.078772
0.0872889
0.0939918
0.0984513
0.100592
0.100686
0.0993387
0.097199
0.0949795
0.0931348
0.0918998
0.0912113
0.0907335
0.0899825
0.0885838
0.086428
0.0837866
0.0812451
0.0795415
0.0791879
0.0803359
0.0825462
0.0848681
0.0861627
0.0854744
0.0823692
0.077229
0.0710613
0.0652415
0.0609964
0.0589937
0.0590508
0.0602517
0.0613356
0.061114
0.0590035
0.0550886
0.0501003
0.0449346
0.0402977
0.0364337
0.0330459
0.0296172
0.0256707
0.0210759
0.0161017
0.0112032
0.00685758
0.00340458
0.000863678
-0.000866867
-0.0019545
-0.00262158
-0.00298448
-0.00323235
-0.0035708
-0.00424718
-0.00538217
-0.00698812
-0.00889639
-0.0109178
-0.0128909
-0.0147665
-0.0166087
-0.0184569
-0.0202784
-0.0219318
-0.0232229
-0.0241049
-0.0247572
-0.0255875
-0.0270499
-0.0294488
-0.0327261
-0.0364589
-0.0399015
-0.0422659
-0.0428704
-0.041416
-0.0380797
-0.0334433
-0.0284409
-0.0239772
-0.0208754
-0.0194385
-0.0195559
-0.0207969
-0.0225657
-0.0244113
-0.0261139
-0.0276959
-0.0290673
-0.0302336
-0.0309761
-0.0310789
-0.0303745
-0.0287401
-0.0262307
-0.0228194
-0.0184413
-0.0129695
-0.0063329
0.00143606
0.00998488
0.018694
0.026809
0.0336998
0.0392142
0.0435651
0.0474984
0.0518396
0.0571632
0.0635255
0.0702177
0.0760947
0.079981
0.0811433
0.0794217
0.0755588
0.0705929
0.0655777
0.0610384
0.0568762
0.052747
0.0482726
0.0435817
0.0394976
0.037387
0.0384365
0.0430445
0.0502711
0.0579918
0.0633155
0.0635286
0.0571003
0.0441289
0.0263074
0.00632389
-0.0130184
-0.0295285
-0.0421385
-0.0509184
-0.0566767
-0.0604403
-0.0631314
-0.0653582
-0.0673761
-0.0690758
-0.0702243
-0.0705982
-0.0700614
-0.0687045
-0.0668582
-0.0651129
-0.0641282
-0.0643765
-0.0659095
-0.0684204
-0.071224
-0.0737498
-0.0760165
-0.0788919
-0.0841179
-0.0938686
-0.110051
-0.133562
-0.163398
-0.196053
-0.225657
-0.244479
-0.244032
-0.215915
-0.152785
-0.0495214
0.0955224
0.278689
0.489139
0.707791
0.907782
1.05828
1.13076
1.10672
0.984309
0.780752
0.529112
0.270218
0.0422849
-0.128209
-0.231453
-0.273678
-0.272009
-0.247039
-0.216317
-0.190874
-0.17471
-0.166949
-0.164478
-0.164246
-0.16449
-0.164794
-0.165382
-0.166551
-0.168219
-0.169963
-0.171022
-0.170736
-0.168831
-0.165491
-0.161284
-0.157159
-0.153919
-0.152061
-0.151512
-0.151795
-0.152189
-0.152037
-0.150984
-0.149157
-0.147028
-0.145136
-0.144057
-0.143951
-0.144635
-0.145562
-0.145994
-0.145165
-0.142563
-0.1381
-0.132053
-0.125187
-0.118537
-0.113184
-0.10995
-0.109159
-0.110658
-0.113732
-0.117554
-0.12124
-0.124214
-0.126246
-0.127252
-0.127289
-0.126421
-0.124641
-0.122085
-0.119109
-0.116155
-0.113754
-0.112211
-0.111639
-0.111801
-0.112371
-0.112985
-0.113295
-0.11309
-0.112159
-0.110326
-0.107556
-0.104082
-0.1004
-0.0973298
-0.0957549
-0.0962935
-0.0991939
-0.104218
-0.11078
-0.11822
-0.126
-0.133657
-0.14072
-0.146475
-0.149964
-0.15012
-0.14615
-0.137863
-0.125806
-0.111303
-0.0959999
-0.0814893
-0.0689051
-0.0587424
-0.0507828
-0.0444556
-0.0390042
-0.0337051
-0.028072
-0.0218975
-0.0152161
-0.00822454
-0.00116735
0.00580057
0.0127086
0.0197169
0.027046
0.0349481
0.0434842
0.0523761
0.0611653
0.0692026
0.0757588
0.0803446
0.0828617
0.0835468
0.0830954
0.0822647
0.0817291
0.082061
0.0833429
0.0854173
0.0878882
0.0902271
0.0918822
0.0924647
0.0917443
0.0897955
0.0870197
0.0840567
0.0816187
0.0801692
0.0798469
0.0802886
0.0808408
0.0808447
0.0798766
0.077905
0.0752796
0.0724654
0.0697994
0.0673408
0.0648007
0.0619772
0.0588026
0.0553359
0.0519246
0.0488918
0.0463952
0.0444161
0.0427992
0.0413218
0.0397894
0.0380852
0.0360852
0.0336793
0.0307297
0.0272098
0.0232286
0.0190382
0.0149011
0.0110997
0.00777178
0.00498279
0.00287389
0.0015878
0.00126039
0.00186302
0.0032193
0.00473636
0.00582607
0.00605419
0.00530706
0.00387984
0.00237541
0.00126649
0.00057503
-0.00014602
-0.00162642
-0.004515
-0.00890365
-0.0142899
-0.0196784
-0.023858
-0.0259532
-0.0257408
-0.0236166
-0.0205543
-0.0176022
-0.0156158
-0.0149623
-0.0154218
-0.016344
-0.016819
-0.0161496
-0.0140512
-0.0108297
-0.00738227
-0.00474848
-0.00388125
-0.00529023
-0.00881721
-0.013683
-0.0187634
-0.023033
-0.025797
-0.0269519
-0.0268305
-0.0258997
-0.0245442
-0.0227726
-0.020234
-0.0164267
-0.0109002
-0.00353226
0.00545517
0.0154884
0.0257824
0.0357145
0.0446588
0.0522556
0.0585045
0.0635604
0.0678854
0.0718343
0.0756509
0.0792298
0.0820891
0.0835814
0.0830445
0.0802446
0.0754487
0.0695582
0.0638595
0.0595285
0.0573577
0.0573144
0.0584449
0.0592073
0.0579901
0.0536795
0.0458517
0.0349085
0.021812
0.00752504
-0.00709161
-0.0214021
-0.0348998
-0.0468902
-0.0565367
-0.063026
-0.0658539
-0.0650543
-0.061411
-0.0562414
-0.0510353
-0.0470154
-0.0448214
-0.0444638
-0.0453093
-0.0463226
-0.0464924
-0.0452155
-0.0423531
-0.0385081
-0.0346639
-0.0319643
-0.0312377
-0.0326581
-0.0357114
-0.0394833
-0.0430031
-0.0458848
-0.048837
-0.053552
-0.0624228
-0.0777874
-0.100885
-0.130845
-0.163607
-0.191924
-0.205789
-0.193686
-0.144284
-0.0487007
0.096755
0.287998
0.511152
0.742155
0.948801
1.09636
1.15536
1.11001
0.963999
0.74119
0.480279
0.224742
0.0115455
-0.137468
-0.218479
-0.243173
-0.231665
-0.2046
-0.17734
-0.157594
-0.14665
-0.142109
-0.140786
-0.140298
-0.139754
-0.139168
-0.138752
-0.1384
-0.137786
-0.136566
-0.13456
-0.131896
-0.128879
-0.125961
-0.123345
-0.121148
-0.119359
-0.117883
-0.116735
-0.115922
-0.11552
-0.115395
-0.115331
-0.114981
-0.113946
-0.112009
-0.109133
-0.105552
-0.101557
-0.0976433
-0.0941567
-0.0913785
-0.0894372
-0.0884262
-0.0882964
-0.0889847
-0.0903298
-0.0920888
-0.09397
-0.0955538
-0.096599
-0.0968511
-0.0962032
-0.0947376
-0.0926822
-0.0903889
-0.0883015
-0.0868245
-0.086161
-0.0862987
-0.0870169
-0.0879095
-0.0885461
-0.0885017
-0.0875985
-0.0858239
-0.0833398
-0.0804427
-0.0775947
-0.075199
-0.0736122
-0.0729699
-0.0732683
-0.0743525
-0.0759611
-0.0779747
-0.08039
-0.0832599
-0.0867776
-0.0910591
-0.09613
-0.101856
-0.108016
-0.114191
-0.119925
-0.124621
-0.12771
-0.12861
-0.126904
-0.122451
-0.11544
-0.106299
-0.0957778
-0.0847336
-0.0738388
-0.0636146
-0.0543698
-0.0461398
-0.0387421
-0.031788
-0.0248344
-0.017469
-0.00929663
-0.000238262
0.00962196
0.019926
0.0303463
0.0405891
0.0506273
0.060566
0.0706137
0.0808204
0.0910888
0.10102
0.110163
0.118046
0.124409
0.12911
0.132291
0.134182
0.135041
0.135107
0.134587
0.133627
0.132438
0.131268
0.130273
0.129684
0.129575
0.129873
0.130373
0.130836
0.130982
0.130666
0.129868
0.128637
0.127117
0.125344
0.123306
0.120956
0.118162
0.114956
0.111447
0.107847
0.104381
0.101284
0.0985832
0.0961903
0.0939954
0.091979
0.0901282
0.0885191
0.0872569
0.0862442
0.0853399
0.0842153
0.0826139
0.0803345
0.0774286
0.0741421
0.0708182
0.0678488
0.0655363
0.0640456
0.0633335
0.0632299
0.0635014
0.0638097
0.0638225
0.0632683
0.0619247
0.0596395
0.0564725
0.0526569
0.0485157
0.0443766
0.0405895
0.0373269
0.0346275
0.0324855
0.0308111
0.0295323
0.0285951
0.0279767
0.0276565
0.0275085
0.027431
0.0272749
0.0268532
0.0260099
0.0247811
0.0232358
0.021602
0.0201293
0.0190748
0.0185579
0.0185416
0.018866
0.0192437
0.0194422
0.0192204
0.0184079
0.0169044
0.0146801
0.011874
0.00874179
0.00564729
0.00307943
0.00136465
0.000710787
0.00100302
0.00189992
0.00297935
0.00390662
0.0046223
0.00540787
0.00664165
0.00868617
0.0116271
0.0153394
0.0194376
0.0235664
0.0275611
0.0315089
0.0357659
0.0406247
0.0462908
0.052636
0.059173
0.0653226
0.0705011
0.0744307
0.0772474
0.0794677
0.0818166
0.0848529
0.0887236
0.0931381
0.0973517
0.100544
0.102075
0.101716
0.099661
0.0965107
0.0929657
0.0895015
0.0863026
0.0832425
0.0801037
0.0768863
0.0740373
0.0724102
0.0729569
0.0762119
0.0818458
0.0882974
0.0932915
0.0943888
0.0898907
0.0794078
0.0638469
0.0451364
0.025594
0.00714695
-0.00891183
-0.0220391
-0.0322358
-0.039782
-0.0449566
-0.0481482
-0.0497799
-0.0503422
-0.0503881
-0.0504264
-0.0508494
-0.0518328
-0.0534047
-0.0554072
-0.0575227
-0.0593648
-0.0605339
-0.0606157
-0.0594904
-0.0572956
-0.054666
-0.052758
-0.053031
-0.0573321
-0.0675367
-0.0849944
-0.110284
-0.142578
-0.179017
-0.214157
-0.24001
-0.246654
-0.223252
-0.159322
-0.0467478
0.117941
0.330726
0.577656
0.833772
1.06474
1.23219
1.30234
1.2559
1.09543
0.846844
0.553847
0.266434
0.0275478
-0.137461
-0.224562
-0.247964
-0.231911
-0.20091
-0.172688
-0.155444
-0.149451
-0.150797
-0.154871
-0.158523
-0.160662
-0.161488
-0.161848
-0.162314
-0.163099
-0.164236
-0.165669
-0.167421
-0.169389
-0.171349
-0.172984
-0.17388
-0.173625
-0.172048
-0.169218
-0.165453
-0.161393
-0.157645
-0.154707
-0.152823
-0.151904
-0.151575
-0.151285
-0.150544
-0.148983
-0.146456
-0.143119
-0.139344
-0.135491
-0.131926
-0.128852
-0.126428
-0.124677
-0.12361
-0.123245
-0.123579
-0.124503
-0.125721
-0.126888
-0.127647
-0.127745
-0.127229
-0.126249
-0.125162
-0.124284
-0.123905
-0.124164
-0.124953
-0.126067
-0.127146
-0.127811
-0.127751
-0.12683
-0.125035
-0.122548
-0.119686
-0.116804
-0.114186
-0.112139
-0.110788
-0.110171
-0.110231
-0.110867
-0.11201
-0.113793
-0.116316
-0.119832
-0.124284
-0.129503
-0.134918
-0.139776
-0.143169
-0.144223
-0.142413
-0.137293
-0.128788
-0.11708
-0.102671
-0.0863
-0.0690577
-0.0520969
-0.0364673
-0.0230499
-0.0121103
-0.00350182
0.00341989
0.00942001
0.015262
0.0215213
0.0284434
0.0361911
0.0445564
0.0533491
0.0621613
0.0705948
0.0782576
0.0848489
0.0902064
0.0944079
0.0977952
0.100766
0.103686
0.106738
0.10985
0.112739
0.115032
0.116339
0.116419
0.115352
0.113282
0.110646
0.107768
0.104948
0.102379
0.100094
0.0980018
0.0958621
0.0935546
0.0909824
0.0882118
0.0855315
0.0832362
0.0816368
0.08088
0.0808554
0.081269
0.081626
0.0814378
0.0803679
0.0782175
0.0750396
0.0710989
0.0667498
0.062339
0.0580324
0.0539054
0.0498286
0.0455366
0.0409899
0.036252
0.031585
0.0272797
0.0236244
0.020719
0.0184818
0.0167885
0.0154752
0.014502
0.0139088
0.013783
0.0141344
0.0148178
0.0155719
0.0161237
0.0161854
0.0157407
0.0148486
0.0136774
0.0123865
0.0110688
0.00970603
0.00819519
0.0064353
0.00437055
0.0020202
-0.000572576
-0.00335629
-0.00618231
-0.00894862
-0.0114653
-0.0135159
-0.0149706
-0.0157121
-0.0157955
-0.0153778
-0.0147052
-0.0140174
-0.0134083
-0.0128609
-0.0122922
-0.0115287
-0.0105482
-0.00936289
-0.00817846
-0.00721292
-0.00669852
-0.00667512
-0.00706631
-0.00777361
-0.00853339
-0.00928837
-0.0099709
-0.0106398
-0.0113722
-0.0120944
-0.0126295
-0.0125195
-0.0110916
-0.00766241
-0.00176518
0.00657193
0.0167839
0.027902
0.0387902
0.0484598
0.0565175
0.0630687
0.068741
0.0742259
0.0800917
0.0864698
0.0930726
0.0993263
0.104488
0.107942
0.10924
0.108181
0.104855
0.0996093
0.0929689
0.0855784
0.0781247
0.071249
0.0655563
0.0615324
0.0595931
0.0600908
0.062974
0.0675839
0.0725784
0.0762494
0.0766434
0.0723578
0.0629114
0.0490747
0.032547
0.0154863
-9.58171e-5
-0.0129547
-0.0225802
-0.0292714
-0.0337613
-0.0369235
-0.0394887
-0.0420499
-0.0449121
-0.0481426
-0.0515799
-0.0549373
-0.0578935
-0.0601534
-0.0614508
-0.061773
-0.0611424
-0.0596903
-0.057541
-0.0549429
-0.0519542
-0.0487137
-0.0453535
-0.042073
-0.0393513
-0.0380493
-0.0396254
-0.0460026
-0.0593791
-0.0813705
-0.112388
-0.150471
-0.190653
-0.224804
-0.242451
-0.232255
-0.183562
-0.0880405
0.0581012
0.252164
0.482864
0.729166
0.960751
1.14191
1.2387
1.22807
1.10582
0.890239
0.618794
0.338607
0.0937512
-0.0860087
-0.191005
-0.230601
-0.226137
-0.201957
-0.177236
-0.162168
-0.15858
-0.16308
-0.170882
-0.178051
-0.182577
-0.184268
-0.183647
-0.18141
-0.178125
-0.1743
-0.170426
-0.166913
-0.164031
-0.161859
-0.160173
-0.158662
-0.156946
-0.154784
-0.152039
-0.148833
-0.145429
-0.142088
-0.13915
-0.136802
-0.135045
-0.133894
-0.13329
-0.133184
-0.133371
-0.133744
-0.13406
-0.134025
-0.133446
-0.132267
-0.130566
-0.128514
-0.12631
-0.124053
-0.121843
-0.119658
-0.117577
-0.115706
-0.114185
-0.113066
-0.1124
-0.111998
-0.111747
-0.111538
-0.111385
-0.111386
-0.111798
-0.112684
-0.113986
-0.115449
-0.116796
-0.117634
-0.117824
-0.117266
-0.116092
-0.114531
-0.112844
-0.111326
-0.110213
-0.109712
-0.109829
-0.110547
-0.111664
-0.112854
-0.113764
-0.114268
-0.114213
-0.113748
-0.11311
-0.112555
-0.112328
-0.11243
-0.112513
-0.111961
-0.10994
-0.105586
-0.0982719
-0.0878538
-0.0745621
-0.0593786
-0.0434661
-0.0280996
-0.0142665
-0.00248727
0.00734179
0.0157348
0.0234354
0.0312062
0.0395084
0.0484094
0.0575931
0.0667344
0.0754129
0.0834115
0.0907306
0.0973526
0.103305
0.10846
0.112537
0.115224
0.116374
0.11599
0.114488
0.112439
0.110383
0.108718
0.107485
0.106419
0.105174
0.10348
0.101225
0.0986161
0.0959322
0.0935396
0.0916531
0.0903515
0.0896429
0.0893499
0.0893572
0.0895684
0.0898477
0.0901279
0.0902334
0.0899506
0.0890307
0.0872952
0.0845597
0.0808787
0.0763416
0.0712794
0.0660264
0.0609238
0.0562476
0.0522975
0.0491736
0.0468717
0.0451988
0.0437664
0.0422198
0.0402314
0.0376754
0.0347074
0.0315891
0.0287259
0.0263554
0.0245296
0.0232703
0.0223739
0.0216387
0.0208984
0.020025
0.0188588
0.0172781
0.0152309
0.0127311
0.00982032
0.00665469
0.0034457
0.000394685
-0.00230428
-0.00450267
-0.00614248
-0.0071803
-0.00761268
-0.00755019
-0.0070741
-0.0062971
-0.00526901
-0.00399917
-0.00254487
-0.000976516
0.000694837
0.00223281
0.00352974
0.00451961
0.00518264
0.00550104
0.00546014
0.00506312
0.00419698
0.0028194
0.00102385
-0.00101322
-0.00298526
-0.00450129
-0.00527266
-0.00516115
-0.00416244
-0.00252989
-0.000604332
0.00118881
0.0024038
0.00282152
0.00250385
0.00185517
0.0016453
0.00282706
0.00615792
0.012188
0.0208677
0.0316514
0.0435219
0.0553243
0.0659407
0.0746821
0.0813653
0.0863499
0.0903941
0.0942884
0.0986752
0.103731
0.109102
0.114009
0.117406
0.118404
0.116522
0.111827
0.104953
0.0968305
0.0884099
0.0806452
0.0742485
0.0698072
0.0677954
0.0683565
0.0712236
0.0753792
0.0792448
0.0809367
0.0788938
0.0723187
0.0615543
0.0479257
0.0331945
0.0191016
0.00676506
-0.00349315
-0.0118575
-0.0188178
-0.0247256
-0.0297491
-0.0339578
-0.0374114
-0.0403586
-0.0432014
-0.0463069
-0.0499597
-0.0540453
-0.0581784
-0.0616766
-0.0639006
-0.0644698
-0.063246
-0.0604347
-0.0564507
-0.0518171
-0.0471392
-0.0431709
-0.0408354
-0.0410694
-0.0447755
-0.0525899
-0.0647884
-0.0814075
-0.102188
-0.126865
-0.154857
-0.184741
-0.213323
-0.234998
-0.241616
-0.222828
-0.16746
-0.0658929
0.0866166
0.286277
0.518087
0.755272
0.962143
1.10104
1.14193
1.07173
0.89985
0.657205
0.38839
0.139399
-0.054581
-0.177085
-0.231298
-0.234937
-0.211416
-0.181513
-0.158109
-0.145323
-0.141232
-0.141482
-0.142169
-0.141251
-0.138525
-0.134937
-0.131647
-0.129681
-0.12973
-0.132131
-0.136845
-0.14319
-0.149977
-0.155662
-0.158785
-0.158573
-0.155101
-0.149377
-0.142949
-0.137367
-0.133811
-0.132526
-0.133046
-0.134264
-0.134851
-0.133715
-0.130281
-0.124682
-0.117792
-0.110825
-0.105145
-0.101716
-0.10085
-0.10214
-0.104694
-0.107505
-0.109685
-0.110886
-0.111236
-0.11117
-0.111275
-0.111911
-0.113049
-0.11442
-0.115547
-0.116076
-0.11585
-0.115015
-0.113918
-0.112843
-0.112001
-0.111366
-0.110883
-0.110501
-0.110177
-0.109972
-0.109905
-0.109909
-0.109863
-0.109661
-0.109174
-0.108465
-0.107649
-0.106967
-0.106652
-0.107057
-0.108473
-0.111133
-0.115164
-0.120404
-0.126402
-0.132465
-0.137803
-0.141774
-0.143971
-0.144252
-0.142586
-0.139017
-0.133325
-0.125266
-0.114594
-0.101497
-0.0864712
-0.0704856
-0.0547527
-0.0401334
-0.0271759
-0.0157765
-0.0054963
0.00423771
0.0138398
0.0234072
0.0327311
0.041447
0.0491779
0.0556405
0.0607187
0.064506
0.0671242
0.0687774
0.0697022
0.070013
0.069761
0.0688885
0.0672831
0.0648651
0.0618191
0.0586869
0.0561876
0.0551034
0.0560324
0.0589851
0.0634284
0.0683013
0.0724154
0.0747717
0.0747215
0.072313
0.0680239
0.0626777
0.0570883
0.0519522
0.0475184
0.0436634
0.0400458
0.0363444
0.0323207
0.0282036
0.0244979
0.0217664
0.0203968
0.0203174
0.0209561
0.021414
0.0208843
0.0189199
0.0156932
0.0117934
0.0081076
0.00543921
0.00404392
0.0037281
0.00393181
0.00396139
0.00340323
0.00220689
0.000659251
-0.000887661
-0.00205126
-0.00282925
-0.00341135
-0.00424964
-0.00563196
-0.00777219
-0.0106254
-0.0138676
-0.0172346
-0.0203571
-0.0230209
-0.0250756
-0.0265458
-0.027461
-0.0279262
-0.0280574
-0.0280237
-0.0279852
-0.0280172
-0.0280574
-0.0278334
-0.026931
-0.0249245
-0.0216088
-0.0171349
-0.0120771
-0.00743248
-0.00411316
-0.00292535
-0.00412094
-0.0074156
-0.0120591
-0.0170886
-0.0215767
-0.0247388
-0.0260299
-0.0250894
-0.0217638
-0.0160693
-0.00833465
0.00089838
0.0107555
0.020213
0.0282003
0.0340377
0.0373767
0.0384463
0.0379409
0.036798
0.0360224
0.0364545
0.0386097
0.0425894
0.0479497
0.0539421
0.0595715
0.0638991
0.0662802
0.0664625
0.0646065
0.0612636
0.0572135
0.0533333
0.0504823
0.0492945
0.0498633
0.0514921
0.0528123
0.0519701
0.0472842
0.0377154
0.0233935
0.0056458
-0.0134087
-0.0313917
-0.0463926
-0.0575059
-0.0647044
-0.0687112
-0.0704937
-0.0709323
-0.0704878
-0.0693131
-0.0674418
-0.0649751
-0.0624064
-0.0605803
-0.0603036
-0.0620839
-0.065757
-0.0705484
-0.075142
-0.07832
-0.0793191
-0.0782511
-0.0759753
-0.073873
-0.0733752
-0.0756227
-0.0813706
-0.0910978
-0.105296
-0.124518
-0.149358
-0.179676
-0.213943
-0.248329
-0.276296
-0.288804
-0.274784
-0.222771
-0.123038
0.0289787
0.229136
0.461993
0.700079
0.907226
1.04561
1.08564
1.0151
0.844319
0.604631
0.340186
0.0959111
-0.0942262
-0.214312
-0.267227
-0.269424
-0.242775
-0.206966
-0.175036
-0.152667
-0.140108
-0.135064
-0.134502
-0.135888
-0.137389
-0.137837
-0.136674
-0.134049
-0.130834
-0.128237
-0.127277
-0.128264
-0.130735
-0.13368
-0.136006
-0.137109
-0.136944
-0.135923
-0.134667
-0.133629
-0.132982
-0.132694
-0.132667
-0.132721
-0.132695
-0.132255
-0.130888
-0.128055
-0.1234
-0.117064
-0.10969
-0.102445
-0.0965062
-0.0927519
-0.091498
-0.0924395
-0.0948536
-0.097881
-0.10077
-0.103008
-0.104355
-0.104727
-0.104197
-0.102983
-0.101265
-0.0993431
-0.0975156
-0.0960644
-0.0951917
-0.0949914
-0.0954417
-0.0963623
-0.0975709
-0.098766
-0.0996489
-0.100047
-0.0999577
-0.0994967
-0.0989174
-0.0985027
-0.0985151
-0.0991727
-0.100534
-0.102665
-0.105529
-0.109014
-0.113021
-0.117426
-0.122037
-0.126654
-0.131158
-0.135399
-0.139357
-0.143023
-0.146209
-0.148624
-0.14979
-0.14907
-0.146063
-0.140454
-0.132452
-0.122523
-0.111333
-0.099514
-0.0875044
-0.0754613
-0.0632978
-0.0507826
-0.0377887
-0.0242076
-0.0100482
0.00444421
0.019081
0.0335786
0.0475566
0.060592
0.0722167
0.081954
0.0895263
0.0949323
0.0984593
0.100737
0.102556
0.104394
0.106672
0.109322
0.112058
0.114495
0.116369
0.117589
0.118256
0.118604
0.118763
0.118862
0.118859
0.118722
0.118393
0.117962
0.117384
0.11662
0.115456
0.113673
0.111161
0.107976
0.104315
0.100485
0.0967702
0.0932246
0.0897145
0.0860202
