0.0736925
0.0730734
0.0727333
0.0725654
0.0724384
0.0722052
0.0716971
0.0706957
0.069082
0.0668353
0.0641181
0.0610991
0.0580886
0.0553277
0.052991
0.0510984
0.0495837
0.0483603
0.0472946
0.0461814
0.0449244
0.0434301
0.0416702
0.0397258
0.0377553
0.0359564
0.034487
0.0333839
0.0324649
0.0314631
0.0300331
0.0278775
0.0250055
0.0216273
0.018106
0.0149446
0.0124515
0.0107996
0.00982822
0.00920279
0.00839438
0.0069909
0.00476445
0.0018036
-0.00147024
-0.00446649
-0.0065777
-0.00746742
-0.00720654
-0.0062546
-0.00519772
-0.00462844
-0.0049048
-0.00603905
-0.00784022
-0.0100405
-0.0122831
-0.0142856
-0.0158672
-0.0167753
-0.0168795
-0.0160966
-0.014518
-0.0124576
-0.0104498
-0.00897407
-0.00843438
-0.00893254
-0.0102947
-0.0121018
-0.0138644
-0.0151499
-0.0157156
-0.0155476
-0.0147565
-0.0135895
-0.0123505
-0.0112893
-0.0106373
-0.0104447
-0.0104921
-0.0103033
-0.0092122
-0.00644354
-0.00145023
0.00584126
0.0150914
0.0253805
0.0355756
0.0444351
0.0511676
0.0552567
0.0567895
0.0562719
0.054553
0.0525338
0.0511707
0.0513082
0.0534592
0.0577643
0.0638194
0.0707791
0.0774407
0.082588
0.0853985
0.0854765
0.0830578
0.0787963
0.0735412
0.0680936
0.063194
0.0594722
0.057578
0.0580262
0.060901
0.0655455
0.0704871
0.0736538
0.0730473
0.0673797
0.0565079
0.0415608
0.0244883
0.0073748
-0.00824815
-0.0216556
-0.0328394
-0.0422218
-0.0500411
-0.0563022
-0.0608336
-0.0634115
-0.0641924
-0.0635828
-0.0622914
-0.0611457
-0.0607659
-0.0614197
-0.0630519
-0.0652197
-0.0673638
-0.0688135
-0.0691187
-0.067943
-0.065423
-0.0620944
-0.0587505
-0.0564538
-0.0564535
-0.060205
-0.0690434
-0.0842103
-0.106541
-0.136071
-0.171309
-0.208606
-0.241979
-0.263299
-0.262623
-0.229485
-0.154851
-0.0334138
0.133331
0.334633
0.549544
0.748544
0.898607
0.970658
0.947684
0.83053
0.63909
0.407611
0.175901
-0.0211294
-0.16151
-0.2395
-0.263809
-0.251753
-0.222411
-0.190832
-0.165701
-0.1497
-0.141525
-0.138486
-0.138116
-0.13908
-0.140691
-0.142578
-0.144319
-0.145284
-0.144957
-0.143128
-0.140018
-0.136136
-0.132093
-0.128452
-0.125597
-0.123561
-0.122273
-0.121495
-0.120847
-0.120015
-0.118606
-0.116484
-0.113645
-0.110444
-0.107298
-0.104678
-0.10289
-0.10182
-0.101127
-0.100192
-0.0984933
-0.0957569
-0.0922123
-0.088517
-0.0855339
-0.0840346
-0.0842448
-0.0859588
-0.0883106
-0.0902606
-0.0909517
-0.0900265
-0.0877514
-0.0848359
-0.0822081
-0.0804443
-0.0797951
-0.0800544
-0.0807595
-0.0813693
-0.0815285
-0.081188
-0.0804533
-0.0795391
-0.0785772
-0.0775558
-0.0763263
-0.0748018
-0.072844
-0.0704791
-0.0678413
-0.0652414
-0.063136
-0.0618715
-0.0617763
-0.0629529
-0.0652673
-0.0683834
-0.0719586
-0.0755833
-0.0790655
-0.0822902
-0.0853226
-0.0880711
-0.0904869
-0.0923573
-0.0933583
-0.0931804
-0.0915795
-0.0883629
-0.0835288
-0.0772804
-0.0699969
-0.0621911
-0.054466
-0.0473503
-0.0412363
-0.036227
-0.0321908
-0.0288157
-0.0255577
-0.0219005
-0.01741
-0.0118175
-0.00500302
0.00278273
0.011232
0.019803
0.0280517
0.0356671
0.0425813
0.0488168
0.0543929
0.0592711
0.063228
0.0659009
0.0671214
0.0670883
0.0664321
0.0661076
0.0669926
0.069615
0.0737006
0.0784104
0.0825482
0.0850987
0.0854609
0.0837989
0.0808218
0.0775025
0.0746354
0.0726844
0.0715049
0.0706985
0.0697191
0.0680496
0.0655651
0.0625143
0.0593493
0.0566737
0.0549258
0.0543055
0.0547408
0.0558567
0.0571087
0.0579674
0.0580171
0.0568779
0.0544796
0.0508269
0.0461189
0.0407754
0.035331
0.0302915
0.0261001
0.0228992
0.0205904
0.018812
0.0172404
0.0155816
0.0139327
0.012505
0.0115433
0.0111886
0.0112247
0.0112324
0.0107076
0.0093698
0.00718349
0.0044183
0.00162067
-0.000685372
-0.00202944
-0.00218659
-0.00127233
0.000311525
0.00194795
0.00300991
0.00303165
0.00192647
-2.27478e-5
-0.00228578
-0.00427501
-0.00572101
-0.00665247
-0.00730311
-0.0080453
-0.00888048
-0.00963737
-0.0099813
-0.00964052
-0.00871366
-0.00757103
-0.00679112
-0.00683067
-0.00776477
-0.00929629
-0.0107903
-0.0116904
-0.0117079
-0.0108819
-0.00950056
-0.00795767
-0.00647769
-0.00492095
-0.00298624
-0.000298609
0.00344409
0.00826125
0.014012
0.0203643
0.0270813
0.0341485
0.0416018
0.0496276
0.0581226
0.0668325
0.0750613
0.0819459
0.0867053
0.0888699
0.0883087
0.0854586
0.0810233
0.0759895
0.071298
0.0676615
0.0654724
0.0649169
0.0659127
0.0679655
0.0703174
0.0719659
0.0717362
0.0684534
0.0612929
0.0500794
0.0354221
0.0187423
0.00205761
-0.0126765
-0.0238631
-0.0308983
-0.0339757
-0.0340667
-0.0324623
-0.0306051
-0.0295621
-0.030038
-0.0321244
-0.0354981
-0.0396155
-0.0438153
-0.0474583
-0.0501201
-0.0516808
-0.052265
-0.0522117
-0.0518828
-0.0515138
-0.0512514
-0.051058
-0.0507605
-0.0502861
-0.0499579
-0.050817
-0.0546216
-0.0635603
-0.0798096
-0.104554
-0.136809
-0.172568
-0.204152
-0.220405
-0.207669
-0.152357
-0.0446682
0.11713
0.322846
0.548853
0.760396
0.918505
0.989873
0.956912
0.823862
0.616577
0.375747
0.145257
-0.0396683
-0.160554
-0.217542
-0.225045
-0.203868
-0.173611
-0.1475
-0.131116
-0.124161
-0.123505
-0.12566
-0.128124
-0.129754
-0.130272
-0.129771
-0.128444
-0.126484
-0.124315
-0.122326
-0.120827
-0.120006
-0.119812
-0.120135
-0.120775
-0.121607
-0.122454
-0.123159
-0.123474
-0.123075
-0.121634
-0.118942
-0.115077
-0.110365
-0.105385
-0.100792
-0.0971669
-0.0948663
-0.0938875
-0.0939514
-0.0945152
-0.0949584
-0.094704
-0.0934768
-0.091273
-0.0883859
-0.0853761
-0.0827735
-0.0810222
-0.0801938
-0.0801739
-0.0805798
-0.0809935
-0.0810298
-0.0804913
-0.0794043
-0.0778567
-0.0761413
-0.0745124
-0.0732582
-0.0725216
-0.0723622
-0.0726175
-0.0728779
-0.0727547
-0.0718699
-0.0701728
-0.0680212
-0.066095
-0.0651998
-0.0658759
-0.0683226
-0.072207
-0.0768944
-0.081737
-0.0863284
-0.090561
-0.0945639
-0.098511
-0.1025
-0.10647
-0.11021
-0.11365
-0.116623
-0.119096
-0.120927
-0.121751
-0.120987
-0.117839
-0.111607
-0.101764
-0.0883749
-0.0720442
-0.0538629
-0.0352074
-0.0174085
-0.00149872
0.0119904
0.0230039
0.0319281
0.0393074
0.0457581
0.0517667
0.0577077
0.0637721
0.0699474
0.0761322
0.0821023
0.0876466
0.0925181
0.0966806
0.100186
0.103303
0.10634
0.109493
0.112774
0.115863
0.118315
0.119704
0.119784
0.118652
0.116655
0.114278
0.11196
0.11
0.108423
0.107144
0.105989
0.104882
0.103741
0.102515
0.101184
0.0997128
0.0979854
0.0959673
0.0936931
0.0911733
0.0886383
0.0862185
0.0840179
0.0821538
0.0805766
0.0792069
0.0780509
0.0769772
0.0758686
0.0744827
0.0724926
0.069669
0.0659838
0.0617355
0.0575017
0.0539528
0.0515468
0.0503097
0.0497831
0.0492377
0.0480003
0.0457464
0.0425931
0.0390822
0.0358357
0.0333561
0.0317841
0.0308941
0.0303524
0.0297171
0.0288337
0.0277069
0.0264853
0.0254267
0.0246075
0.0240297
0.023637
0.0232633
0.022775
0.0220379
0.0209797
0.0196414
0.0180416
0.0163037
0.0145074
0.0127914
0.0112605
0.00986653
0.00852008
0.00706964
0.00531521
0.00316145
0.000640064
-0.00199078
-0.00440823
-0.00618004
-0.00710012
-0.00700066
-0.00603957
-0.00458677
-0.00300104
-0.00150119
-9.62286e-5
0.00152758
0.00391908
0.00761571
0.0130287
0.0201796
0.028733
0.0380017
0.0473831
0.0562846
0.0645216
0.0720853
0.0792153
0.0858576
0.0917697
0.0964071
0.0992214
0.0997699
0.0979179
0.0939056
0.0883602
0.0820719
0.0759049
0.0707667
0.0674766
0.0666759
0.0687472
0.0732981
0.0791742
0.0844999
0.087113
0.0851489
0.0775837
0.0646628
0.0477372
0.0289726
0.01058
-0.00556221
-0.0184826
-0.0279103
-0.034176
-0.0378096
-0.0395521
-0.0400414
-0.0398585
-0.0395573
-0.0394634
-0.039765
-0.0405231
-0.0417147
-0.0432204
-0.0448769
-0.046593
-0.0480832
-0.0490333
-0.0491214
-0.0482015
-0.0463674
-0.0440856
-0.0424937
-0.0434672
-0.0492834
-0.0622248
-0.0840472
-0.115084
-0.153291
-0.193429
-0.227024
-0.242565
-0.226888
-0.167116
-0.053852
0.114754
0.329535
0.568228
0.796925
0.975647
1.06792
1.05144
0.925948
0.714846
0.459507
0.207594
-0.000349889
-0.141019
-0.211753
-0.226842
-0.209144
-0.180983
-0.157497
-0.144751
-0.141728
-0.144209
-0.147996
-0.150735
-0.151963
-0.152369
-0.15278
-0.153546
-0.154448
-0.154882
-0.154387
-0.15268
-0.149872
-0.146434
-0.143021
-0.140256
-0.138578
-0.137996
-0.138228
-0.138664
-0.138747
-0.138002
-0.136229
-0.133479
-0.130087
-0.126459
-0.123019
-0.119963
-0.117303
-0.11496
-0.112697
-0.110343
-0.107904
-0.105391
-0.102896
-0.100543
-0.0983144
-0.0961617
-0.0940122
-0.0917592
-0.0894619
-0.0872139
-0.0851318
-0.0834207
-0.0821399
-0.0813425
-0.0809434
-0.0808223
-0.0808728
-0.0810325
-0.081268
-0.0815513
-0.0817465
-0.0816519
-0.081131
-0.0800353
-0.078389
-0.0764128
-0.0744027
-0.072759
-0.0717764
-0.0715673
-0.0720798
-0.0731122
-0.0743808
-0.0756727
-0.0767897
-0.0777727
-0.078693
-0.0797525
-0.0811578
-0.0830895
-0.0855506
-0.0883847
-0.0912166
-0.0934951
-0.094624
-0.0940123
-0.0911328
-0.0857012
-0.0775496
-0.0666667
-0.053349
-0.0380554
-0.0215212
-0.00465705
0.0115661
0.0263299
0.039109
0.0498036
0.0586772
0.0661595
0.0726757
0.0785869
0.0839609
0.0887545
0.0927746
0.0959146
0.0980232
0.0991975
0.0995412
0.0992202
0.0984771
0.0974787
0.0963639
0.0952105
0.0940167
0.0926712
0.0911711
0.0894438
0.0874939
0.0854802
0.083525
0.0817666
0.080241
0.0789006
0.0774639
0.0758384
0.0737745
0.0713308
0.0685531
0.065562
0.062387
0.0590354
0.0554862
0.0517501
0.0479805
0.0445627
0.0417996
0.0398924
0.0387378
0.0378996
0.0368297
0.0349997
0.0321677
0.0285535
0.0246268
0.0209615
0.0180645
0.016038
0.0146931
0.0135615
0.0122244
0.0101882
0.00748328
0.00420585
0.000837379
-0.00209765
-0.00402196
-0.00473168
-0.00423095
-0.00297964
-0.0015714
-0.000751558
-0.00102401
-0.002577
-0.00514088
-0.00817675
-0.0110642
-0.013211
-0.014308
-0.0144398
-0.0138464
-0.0130198
-0.0124541
-0.0124358
-0.0130196
-0.0141021
-0.0154563
-0.0167194
-0.0177203
-0.018233
-0.0181953
-0.0176226
-0.0166407
-0.0154144
-0.0142415
-0.0133931
-0.0131693
-0.0138151
-0.0153708
-0.0176069
-0.0201625
-0.0224585
-0.0237741
-0.0235482
-0.0213339
-0.0169474
-0.0105892
-0.00266349
0.0062033
0.0153616
0.024217
0.0323913
0.0398359
0.0466968
0.0533493
0.0601266
0.0672871
0.0747887
0.0823081
0.0892685
0.0949265
0.0985889
0.0998205
0.0985434
0.0950219
0.0898363
0.0836893
0.0773991
0.0715303
0.0666442
0.0631587
0.061568
0.0621942
0.0648787
0.0688092
0.0724148
0.0737405
0.0709489
0.0629621
0.0498623
0.0329741
0.0144635
-0.00341723
-0.0187842
-0.0306994
-0.039112
-0.0445117
-0.0476766
-0.0493713
-0.0501202
-0.0502828
-0.050175
-0.0499877
-0.0500965
-0.0508535
-0.0525072
-0.0550937
-0.0584524
-0.0621827
-0.0656787
-0.0682641
-0.0693486
-0.0687016
-0.0664034
-0.0629858
-0.0594365
-0.0573451
-0.0587804
-0.0659553
-0.0808489
-0.104628
-0.136844
-0.174667
-0.212334
-0.241342
-0.251012
-0.229325
-0.164918
-0.0500079
0.116125
0.323778
0.550852
0.764443
0.926417
1.00288
0.974402
0.843154
0.633938
0.387848
0.150614
-0.0402597
-0.164602
-0.222103
-0.228044
-0.204991
-0.174211
-0.149676
-0.136634
-0.133749
-0.13672
-0.141227
-0.144515
-0.145726
-0.145265
-0.143988
-0.142576
-0.141421
-0.140637
-0.140177
-0.139791
-0.139224
-0.138156
-0.13632
-0.133686
-0.130265
-0.126222
-0.121832
-0.117492
-0.113535
-0.110291
-0.108022
-0.106681
-0.106079
-0.105873
-0.105528
-0.104631
-0.102963
-0.100571
-0.0977241
-0.0948812
-0.0923542
-0.0902459
-0.0884648
-0.0866977
-0.0846974
-0.0824698
-0.0801192
-0.0780587
-0.076625
-0.0759409
-0.0757775
-0.0757844
-0.0754966
-0.0746534
-0.0732023
-0.0713387
-0.0693931
-0.067675
-0.066332
-0.0652651
-0.0642735
-0.0631063
-0.0615977
-0.0597927
-0.0580017
-0.0566322
-0.0560488
-0.0564914
-0.057788
-0.0595375
-0.0611396
-0.0621092
-0.0622491
-0.0616406
-0.0607571
-0.0600172
-0.0599471
-0.0607765
-0.0625341
-0.0650039
-0.0679097
-0.0710371
-0.0740897
-0.076845
-0.0789574
-0.0800336
-0.0794967
-0.0768608
-0.0717524
-0.0641292
-0.054358
-0.0431078
-0.0313036
-0.0198063
-0.0093425
-0.000261904
0.0072893
0.01367
0.0193248
0.0248538
0.0308786
0.0377656
0.0457022
0.0544981
0.0637505
0.0728704
0.0812167
0.0882401
0.0935889
0.0971285
0.0989146
0.0992386
0.098454
0.0970688
0.0954743
0.0940254
0.0928227
0.0917272
0.0904763
0.0887653
0.0864202
0.0835085
0.0802518
0.0768148
0.0734786
0.0702404
0.0671222
0.0641827
0.0615868
0.0597151
0.0588348
0.0590385
0.0599598
0.0610936
0.061757
0.0614131
0.0598204
0.0570753
0.0534785
0.049454
0.0454985
0.0419472
0.0391371
0.0372535
0.0362827
0.0360961
0.0363385
0.0365256
0.0361955
0.0350737
0.0330777
0.0303924
0.0273416
0.0242324
0.0213674
0.018837
0.0166603
0.0147285
0.0129915
0.0114138
0.0100947
0.00911792
0.00857163
0.00847988
0.0086178
0.00869671
0.00823806
0.00688465
0.00439324
0.0009597
-0.00291207
-0.00657747
-0.00940856
-0.011163
-0.0119693
-0.0123332
-0.0128953
-0.0140945
-0.0160062
-0.0182922
-0.0203952
-0.0217472
-0.0221203
-0.0216178
-0.0205661
-0.0194289
-0.0185874
-0.0181478
-0.0180971
-0.0184341
-0.0191104
-0.0202334
-0.0218215
-0.0237446
-0.0256809
-0.0272998
-0.0282331
-0.0283659
-0.0277907
-0.0268937
-0.0260412
-0.0254365
-0.0250095
-0.0243953
-0.0230447
-0.0203653
-0.0159179
-0.00970429
-0.00198339
0.00655245
0.0149942
0.0225092
0.0285103
0.0327843
0.0355939
0.0374672
0.0391027
0.0412001
0.0442598
0.0485545
0.0540217
0.0603463
0.0668211
0.0726357
0.0769216
0.0791874
0.0792498
0.0773543
0.0739725
0.0697379
0.0651483
0.0605789
0.0562727
0.0527412
0.050422
0.0497047
0.050478
0.0519109
0.0524878
0.0504587
0.0442516
0.0333455
0.0182739
0.000714125
-0.0170226
-0.0327011
-0.0447232
-0.0524943
-0.056332
-0.0572996
-0.0567515
-0.0560229
-0.0561081
-0.0574728
-0.0599428
-0.062989
-0.0658601
-0.0678534
-0.0685684
-0.0680949
-0.0667883
-0.0652292
-0.063945
-0.0632253
-0.0630285
-0.0631224
-0.0633428
-0.0641574
-0.0666299
-0.0725974
-0.084062
-0.102722
-0.128907
-0.160963
-0.194677
-0.223497
-0.239341
-0.233864
-0.199627
-0.131336
-0.0266762
0.11338
0.283973
0.47599
0.675908
0.865388
1.0222
1.12283
1.14721
1.0845
0.93769
0.725027
0.477357
0.231039
0.0192385
-0.135891
-0.227459
-0.262944
-0.259276
-0.235868
-0.208817
-0.187532
-0.174903
-0.169279
-0.167434
-0.166659
-0.165734
-0.164792
-0.164438
-0.16498
-0.166277
-0.167716
-0.168727
-0.169016
-0.168777
-0.168409
-0.168192
-0.16809
-0.167685
-0.166274
-0.163344
-0.158889
-0.153521
-0.148225
-0.144055
-0.141661
-0.141034
-0.141627
-0.142559
-0.142992
-0.142378
-0.140511
-0.137516
-0.133697
-0.129432
-0.125076
-0.12095
-0.117412
-0.114881
-0.113621
-0.113802
-0.115339
-0.11801
-0.12125
-0.124465
-0.127011
-0.128478
-0.128646
-0.127625
-0.125706
-0.123265
-0.120623
-0.117995
-0.115464
-0.113005
-0.110642
-0.108469
-0.106754
-0.105726
-0.105551
-0.106225
-0.107495
-0.109085
-0.110711
-0.112091
-0.113225
-0.114201
-0.115246
-0.11666
-0.118757
-0.121705
-0.125612
-0.130242
-0.135107
-0.139504
-0.142715
-0.144212
-0.143799
-0.14157
-0.137862
-0.132909
-0.126787
-0.119327
-0.110287
-0.0995281
-0.0871918
-0.073806
-0.0603292
-0.0477097
-0.0366968
-0.0276644
-0.0203948
-0.014199
-0.00825858
-0.00186363
0.00534522
0.0133483
0.0219002
0.030668
0.0394111
0.0479516
0.0561854
0.063909
0.0708886
0.0768484
0.0816648
0.0853502
0.0881302
0.0901473
0.0916068
0.0925449
0.0928427
0.0924631
0.0914617
0.0899892
0.0884052
0.0870664
0.0862948
0.0862047
0.0866442
0.0873357
0.0878092
0.0876353
0.0863413
0.0836415
0.0793378
0.0735226
0.0665218
0.0589952
0.0518128
0.04595
0.0422319
0.0409959
0.0420369
0.0447024
0.0479602
0.0507872
0.0524335
0.0525492
0.0512406
0.0489359
0.046125
0.0433539
0.0409031
0.0389664
0.0375495
0.0364581
0.0354427
0.0341483
0.0324171
0.0300941
0.0273128
0.024295
0.0213359
0.0186911
0.0163903
0.0142895
0.0121741
0.00994517
0.00764945
0.00548759
0.00379156
0.00279237
0.00259597
0.00295101
0.0034534
0.00361796
0.00309885
0.00176929
-0.000123518
-0.0021705
-0.00390795
-0.00495312
-0.00515931
-0.00466551
-0.00385353
-0.00318088
-0.00308599
-0.00373875
-0.00521946
-0.00735848
-0.00983369
-0.0122721
-0.0143793
-0.0159055
-0.0167724
-0.0169336
-0.0164169
-0.0153093
-0.013834
-0.0122627
-0.0110503
-0.0106059
-0.0112894
-0.0131571
-0.0158946
-0.0189148
-0.0214332
-0.0227341
-0.0222776
-0.0198411
-0.015539
-0.00959099
-0.00238573
0.0055448
0.0137401
0.021731
0.0291873
0.0359515
0.0421374
0.048013
0.0540239
0.0605834
0.0676748
0.0750503
0.0820349
0.0877422
0.0914615
0.0926976
0.0914534
0.0881224
0.0832673
0.0775639
0.0716923
0.0662424
0.0619285
0.0594113
0.059164
0.0611257
0.0645202
0.0678004
0.0690033
0.0662352
0.0582964
0.045172
0.028073
0.00912273
-0.0093213
-0.0253234
-0.0375999
-0.0458833
-0.0505548
-0.0524137
-0.0524302
-0.0514649
-0.0502197
-0.0491616
-0.0485154
-0.0483154
-0.0483921
-0.0483991
-0.048105
-0.0474272
-0.0464743
-0.0455641
-0.0451283
-0.0453608
-0.0461934
-0.0472529
-0.0479333
-0.047752
-0.0466074
-0.0448643
-0.0435599
-0.0441737
-0.0483706
-0.0577786
-0.0735041
-0.0958602
-0.124195
-0.156201
-0.18758
-0.212058
-0.221499
-0.206325
-0.156725
-0.064498
0.0742095
0.255897
0.467153
0.684315
0.875751
1.00789
1.05343
0.999396
0.851949
0.636097
0.389499
0.152563
-0.041629
-0.174558
-0.244348
-0.262369
-0.247128
-0.217442
-0.187289
-0.164135
-0.149863
-0.142889
-0.140369
-0.139892
-0.139972
-0.140067
-0.14003
-0.139858
-0.139475
-0.139013
-0.138448
-0.137892
-0.137344
-0.136763
-0.13594
-0.13463
-0.132584
-0.129637
-0.125845
-0.121529
-0.117127
-0.113168
-0.110042
-0.107926
-0.106752
-0.10622
-0.105987
-0.10577
-0.105278
-0.104404
-0.103183
-0.101555
-0.099623
-0.0974732
-0.0953402
-0.0933752
-0.0917509
-0.0904409
-0.0893533
-0.0882704
-0.0870674
-0.0857465
-0.0844062
-0.0832997
-0.0826455
-0.0825557
-0.0829901
-0.0837349
-0.0845096
-0.0849856
-0.0848373
-0.0839175
-0.0821053
-0.0794207
-0.0761345
-0.0726642
-0.0694606
-0.0670734
-0.0657487
-0.0655688
-0.0663358
-0.0677094
-0.0694265
-0.0711913
-0.0729223
-0.0745433
-0.0760439
-0.0774796
-0.078969
-0.0806397
-0.0826894
-0.0853629
-0.08874
-0.0928306
-0.0973796
-0.101986
-0.106011
-0.108709
-0.109464
-0.107687
-0.103221
-0.0962547
-0.0873446
-0.0773769
-0.0673628
-0.0581703
-0.0503194
-0.043974
-0.038741
-0.034103
-0.0292819
-0.0237666
-0.0172383
-0.00966366
-0.00120214
0.00787129
0.0172101
0.0266049
0.0357567
0.044551
0.0528477
0.0606539
0.0680163
0.0749597
0.0814427
0.0872824
0.0923184
0.0963673
0.0993233
0.101318
0.102558
0.103288
0.103715
0.103889
0.103763
0.103421
0.102808
0.102075
0.101366
0.100797
0.100379
0.10004
0.0996521
0.0990096
0.0980584
0.0967156
0.0950608
0.0932054
0.09124
0.0891522
0.0870233
0.0848146
0.0824702
0.0799899
0.0773412
0.0745089
0.0715542
0.0685143
0.0654776
0.0626386
0.0601683
0.0582003
0.0568381
0.0560504
0.0556092
0.0552223
0.0545462
0.0533185
0.0514276
0.0490372
0.0463473
0.0435859
0.0409431
0.0384754
0.0361632
0.0340171
0.0319612
0.0300317
0.0282768
0.0266876
0.025131
0.0234973
0.0215969
0.0193237
0.0166221
0.013598
0.0105146
0.00772809
0.00562515
0.00442063
0.00412288
0.00441962
0.00486788
0.00498509
0.00449423
0.00334656
0.00176605
0.000201146
-0.00088261
-0.00120989
-0.000743236
0.000269894
0.00140536
0.00221828
0.00230471
0.00144977
-0.000228719
-0.00251391
-0.00504114
-0.00741024
-0.00931697
-0.0105976
-0.011264
-0.0114931
-0.0115512
-0.0117846
-0.0124625
-0.0136185
-0.0150943
-0.0165347
-0.0175151
-0.0176994
-0.0169033
-0.0151859
-0.0129199
-0.010483
-0.00828483
-0.00666136
-0.00565495
-0.00505974
-0.00452246
-0.00349092
-0.00141394
0.00211487
0.0073374
0.014154
0.0221926
0.0307611
0.0391047
0.0464801
0.0524667
0.0570381
0.0606349
0.0640558
0.0679685
0.0727801
0.0784583
0.0844143
0.089744
0.09358
0.0953286
0.0947496
0.0919392
0.0874331
0.0818542
0.0759791
0.0708154
0.0673672
0.0664226
0.0682749
0.0723373
0.0771005
0.08047
0.0803398
0.0752378
0.0648388
0.0500019
0.0325694
0.0147399
-0.00170266
-0.0154241
-0.0259345
-0.0333878
-0.0381559
-0.0408055
-0.0419323
-0.042095
-0.0417699
-0.0412594
-0.0408966
-0.040822
-0.0410108
-0.0413829
-0.0417983
-0.0422057
-0.0425756
-0.0430049
-0.0434933
-0.0440923
-0.0447679
-0.0454462
-0.0459655
-0.0461663
-0.0458926
-0.0451331
-0.0440246
-0.0430794
-0.0432124
-0.0457868
-0.0525643
-0.0652485
-0.085107
-0.112297
-0.145527
-0.181761
-0.215931
-0.241203
-0.249608
-0.23248
-0.181175
-0.0882542
0.0502212
0.231857
0.445094
0.667862
0.869051
1.01379
1.07198
1.02747
0.884308
0.667368
0.416345
0.174785
-0.0215119
-0.152956
-0.218492
-0.231907
-0.214172
-0.18564
-0.160418
-0.144648
-0.138245
-0.138001
-0.140266
-0.142542
-0.143706
-0.143748
-0.14306
-0.141967
-0.140621
-0.139171
-0.137791
-0.136511
-0.135321
-0.134139
-0.13281
-0.131166
-0.129068
-0.126484
-0.123444
-0.120095
-0.116651
-0.113399
-0.110605
-0.108449
-0.106923
-0.105883
-0.105053
-0.104155
-0.103008
-0.101467
-0.0995792
-0.0974255
-0.0951575
-0.0928991
-0.0908138
-0.0889366
-0.0872744
-0.0858285
-0.0845813
-0.0835926
-0.0829221
-0.082573
-0.0826458
-0.0830136
-0.0834589
-0.0836524
-0.0833219
-0.0822632
-0.0805244
-0.0783847
-0.0762164
-0.074459
-0.0734491
-0.0732765
-0.0738261
-0.0748307
-0.0759419
-0.0768424
-0.0773475
-0.0773807
-0.0769435
-0.0761343
-0.0750592
-0.0738048
-0.0725
-0.0711933
-0.069938
-0.0689094
-0.0683369
-0.0684898
-0.0696472
-0.0718976
-0.0750323
-0.0786662
-0.0821106
-0.0846692
-0.0857565
-0.0848428
-0.0815505
-0.0757574
-0.0675641
-0.0573344
-0.0457656
-0.0339073
-0.0228439
-0.0135262
-0.00633631
-0.00115877
0.00264435
0.00591987
0.00944219
0.01372
0.0189883
0.0251245
0.0319565
0.0392607
0.0468334
0.0544598
0.0618725
0.0688315
0.0750091
0.0803164
0.0847211
0.0883216
0.0911953
0.0933322
0.0947125
0.095242
0.0948533
0.0936182
0.091736
0.0895572
0.0873534
0.0854138
0.0837862
0.0823951
0.0811124
0.079888
0.0786156
0.0773797
0.0762952
0.0754646
0.0749153
0.0745212
0.0740851
0.0733491
0.0721318
0.0702908
0.067853
0.0648313
0.0612797
0.0573234
0.0530609
0.0486811
0.0444102
0.0405048
0.0372002
0.0346499
0.0328268
0.0315321
0.0304857
0.0293615
0.0280418
0.0265494
0.0250476
0.0237596
0.0227904
0.0220601
0.0213804
0.0204963
0.0192072
0.0174469
0.0152757
0.0128407
0.0102099
0.00751309
0.0048251
0.00221521
-0.000174075
-0.00230054
-0.00413901
-0.00576363
-0.00727473
-0.00875668
-0.010225
-0.0116117
-0.012836
-0.0137541
-0.0143073
-0.0145679
-0.0145873
-0.0144895
-0.0143396
-0.0141526
-0.0139179
-0.0135539
-0.0130305
-0.012337
-0.0115655
-0.0108686
-0.0103661
-0.0102203
-0.0105159
-0.0112839
-0.0124699
-0.0139546
-0.0155519
-0.0170003
-0.0180858
-0.0186464
-0.0186168
-0.018059
-0.0171147
-0.016043
-0.015068
-0.0144655
-0.0143864
-0.014884
-0.0159116
-0.0172518
-0.0184939
-0.019085
-0.0183331
-0.0155427
-0.0101134
-0.00192305
0.00863373
0.0205938
0.0327082
0.0437486
0.0528287
0.0597447
0.0649423
0.0692858
0.0736971
0.0786857
0.0842195
0.0896941
0.0942138
0.0969431
0.0972963
0.0952296
0.0910719
0.0855179
0.0794113
0.0736319
0.0689947
0.0662766
0.0660389
0.068287
0.0723102
0.0766118
0.079196
0.0782095
0.0723698
0.0615916
0.0469693
0.0304738
0.0143627
0.000435606
-0.0103521
-0.0180594
-0.0233927
-0.0273146
-0.0306255
-0.0337489
-0.0366794
-0.0392092
-0.041051
-0.0421442
-0.0426274
-0.042861
-0.0431825
-0.0438342
-0.044906
-0.0463091
-0.0478924
-0.0495282
-0.0510589
-0.0524453
-0.0534648
-0.053933
-0.0536831
-0.0526319
-0.0508734
-0.0489359
-0.0479215
-0.0493992
-0.05533
-0.0675822
-0.0875021
-0.115245
-0.149221
-0.185541
-0.217954
-0.238096
-0.236148
-0.201616
-0.125302
-0.00177592
0.167287
0.370313
0.584538
0.778234
0.916506
0.970157
0.924512
0.785201
0.577976
0.342091
0.1192
-0.0577506
-0.172155
-0.225035
-0.230767
-0.209563
-0.180012
-0.154376
-0.137655
-0.129396
-0.126777
-0.126808
-0.127476
-0.127925
-0.127908
-0.127447
-0.126575
-0.125431
-0.124228
-0.123274
-0.122747
-0.122582
-0.122599
-0.122525
-0.122059
-0.121045
-0.119502
-0.117536
-0.115277
-0.11287
-0.110415
-0.107981
-0.105565
-0.103137
-0.100649
-0.0980263
-0.0951774
-0.0920851
-0.0888051
-0.0854179
-0.0820661
-0.0788801
-0.0760691
-0.0737536
-0.0721122
-0.0711836
-0.0709905
-0.0715317
-0.0726079
-0.0739355
-0.0751518
-0.075921
-0.0759242
-0.075056
-0.0734455
-0.0713751
-0.0692627
-0.0675112
-0.0663684
-0.0659573
-0.0661935
-0.066765
-0.0673604
-0.0676134
-0.0672112
-0.0660396
-0.0642435
-0.0622415
-0.0604899
-0.0593387
-0.0589049
-0.0589501
-0.0589911
-0.058637
-0.0577125
-0.0563922
-0.0551429
-0.0545237
-0.0549354
-0.0565906
-0.0592382
-0.0625144
-0.0659377
-0.0690473
-0.0714703
-0.0728356
-0.0727909
-0.0711253
-0.0676003
-0.0621395
-0.0548598
-0.0462017
-0.0368035
-0.0273835
-0.0186254
-0.0110018
-0.0045624
0.000899414
0.00575893
0.010455
0.0152388
0.0201834
0.0251301
0.0298715
0.0342228
0.0383729
0.0424954
0.0468288
0.0515276
0.0564184
0.061029
0.064823
0.0673264
0.0683718
0.0681454
0.0671819
0.0660319
0.065198
0.0649402
0.0651498
0.0656695
0.0662238
0.06659
0.0666695
0.066386
0.0657049
0.0645328
0.0627454
0.0602287
0.0570744
0.0536164
0.0502216
0.0473473
0.0453271
0.0442014
0.0437871
0.0438219
0.043956
0.0439481
0.0435976
0.0428354
0.041622
0.0399527
0.0379642
0.0357676
0.0336687
0.0317457
0.0299983
0.0283598
0.0266157
0.02471
0.0227138
0.0208913
0.0195264
0.0187655
0.0185071
0.0183415
0.0178169
0.0165962
0.0146272
0.0121853
0.00971856
0.00761443
0.00599034
0.00462652
0.00309424
0.000982141
-0.00199165
-0.00563504
-0.00957743
-0.0132139
-0.0161049
-0.0179382
-0.0187149
-0.0187294
-0.0182967
-0.0178158
-0.0174752
-0.0174074
-0.0176092
-0.017958
-0.0183383
-0.0186669
-0.0187607
-0.0185614
-0.018043
-0.0173909
-0.0168383
-0.0166609
-0.0170906
-0.0181725
-0.0196653
-0.0212257
-0.0224377
-0.023054
-0.0229913
-0.0223807
-0.0214065
-0.0201906
-0.0186395
-0.0164247
-0.0132224
-0.00870602
-0.00293611
0.00381231
0.0109192
0.017724
0.0237849
0.029173
0.0342118
0.039561
0.0457303
0.0529117
0.0607556
0.0684473
0.0750192
0.0796476
0.0818333
0.0815861
0.0793348
0.0757138
0.0714528
0.0672182
0.0635903
0.0610429
0.0599534
0.0602921
0.0615367
0.0626648
0.0623299
0.0591317
0.052151
0.0412477
0.0271369
0.0112327
-0.00471874
-0.0190963
-0.0306315
-0.0386685
-0.043094
-0.044285
-0.0430858
-0.0406074
-0.038054
-0.0363937
-0.0361506
-0.0372837
-0.039392
-0.0418605
-0.0440992
-0.045826
-0.0470982
-0.0481657
-0.0492233
-0.050361
-0.0513799
-0.0519038
-0.0516723
-0.0506525
-0.049169
-0.0479312
-0.0478909
-0.0503536
-0.0566602
-0.0680376
-0.0855678
-0.109825
-0.140172
-0.174069
-0.206272
-0.228537
-0.229707
-0.19712
-0.119352
0.00992118
0.187601
0.398199
0.613619
0.797516
0.91364
0.935846
0.856548
0.690191
0.469922
0.238235
0.0351009
-0.112403
-0.195307
-0.221244
-0.208512
-0.178008
-0.146664
-0.123971
-0.112428
-0.109929
-0.112746
-0.117513
-0.122257
-0.126266
-0.129423
-0.131779
-0.133396
-0.134271
-0.134332
-0.133637
-0.132397
-0.130869
-0.129144
-0.127323
-0.125241
-0.122639
-0.119355
-0.11536
-0.110971
-0.10663
-0.102835
-0.0999532
-0.0980406
-0.0968718
-0.0961091
-0.0954553
-0.0946875
-0.0937784
-0.0926981
-0.0913886
-0.0898525
-0.0881311
-0.0863618
-0.0848124
-0.0838398
-0.0836646
-0.0842177
-0.0851317
-0.0857965
-0.0854739
-0.083777
-0.0806392
-0.0764392
-0.071988
-0.0681002
-0.0655103
-0.0645949
-0.0652525
-0.0669649
-0.0690799
-0.0708827
-0.0717763
-0.0713844
-0.0696645
-0.0668698
-0.0635484
-0.0602952
-0.0577576
-0.0564588
-0.0566682
-0.0585083
-0.0618769
-0.066558
-0.0721983
-0.0784454
-0.0849517
-0.0913133
-0.0971609
-0.102183
-0.106185
-0.109103
-0.111054
-0.112304
-0.11333
-0.114416
-0.115547
-0.116101
-0.114931
-0.110622
-0.101965
-0.0886371
-0.0713466
-0.0519335
-0.032782
-0.0159971
-0.00279687
0.00690373
0.0141714
0.0205413
0.0273564
0.0352454
0.0440929
0.0532113
0.0617547
0.0691033
0.074981
0.0793879
0.0824813
0.0845324
0.0858959
0.0868776
0.0878228
0.0889787
0.0904845
0.0922389
0.0939775
0.0955235
0.0966913
0.0974755
0.097988
0.0983316
0.0984851
0.0982664
0.0974524
0.0957658
0.093128
0.0896072
0.0854234
0.0809621
0.076571
0.072471
0.0687823
0.0656072
0.0629505
0.0608132
0.059222
0.0581837
0.0575572
0.0571911
0.0568077
0.056064
0.0546383
0.0521859
0.0486053
0.0439723
0.0387325
0.0334979
0.0289476
0.0255271
0.0233831
0.0223325
0.0219569
0.0218344
0.0217049
0.021481
0.0212313
0.0210461
0.0209158
0.0205726
0.0199015
0.0188645
0.017569
0.0162427
0.0152053
0.0144909
0.0140127
0.0135508
0.0128498
0.0119052
0.0107873
0.00972794
0.00883759
0.00805164
0.00703909
0.00546425
0.00307474
-1.58261e-5
-0.00346538
-0.00667631
-0.00911177
-0.0104333
-0.0106308
-0.00989794
-0.00866198
-0.00732917
-0.00629167
-0.00580356
-0.00598936
-0.00685205
-0.00828596
-0.00997437
-0.0115528
-0.0126665
-0.013023
-0.0124946
-0.0110609
-0.00872836
-0.00553635
-0.00140017
0.00372133
0.00973676
0.0163677
0.0231064
0.0294446
0.0350263
0.0398412
0.0442409
0.0489023
0.0542829
0.0606354
0.0677767
0.0749885
0.0813037
0.0858224
0.0879918
0.08774
0.0854636
0.0819023
0.0779235
0.07436
0.0717509
0.0704855
0.0707251
0.0725168
0.0754141
0.0785849
0.0807059
0.0802249
0.0758337
0.0669284
0.0538776
0.0379554
0.0210527
0.00494149
-0.0089063
-0.0197791
-0.0276807
-0.0329552
-0.0360579
-0.0375339
-0.0378398
-0.0374278
-0.0367496
-0.0361784
-0.0359872
-0.0364236
-0.0374018
-0.0387649
-0.0401918
-0.0413911
-0.0420465
-0.0420747
-0.0414774
-0.0403111
-0.038676
-0.0366987
-0.0346001
-0.0326371
-0.0313029
-0.0314437
-0.0343074
-0.0414447
-0.0543611
-0.0742573
-0.101398
-0.134162
-0.168512
-0.197603
-0.211845
-0.199689
-0.149355
-0.0514102
0.097329
0.290729
0.51089
0.728825
0.908887
1.01662
1.02816
0.937743
0.760722
0.53019
0.288208
0.0742676
-0.0845279
-0.178392
-0.213975
-0.208633
-0.182744
-0.153279
-0.130312
-0.117018
-0.112044
-0.112091
-0.114018
-0.115878
-0.116882
-0.117043
-0.116643
-0.116072
-0.115665
-0.115579
-0.115757
-0.115856
-0.115422
-0.114091
-0.111776
-0.108691
-0.105455
-0.102705
-0.10093
-0.100286
-0.100485
-0.100913
-0.101031
-0.100423
-0.0990386
-0.0972208
-0.0953244
-0.0936906
-0.092436
-0.0913054
-0.0899221
-0.0879232
-0.0851191
-0.0816863
-0.0780003
-0.0745833
-0.0718929
-0.0701542
-0.0694025
-0.0694328
-0.0699405
-0.0707485
-0.071667
-0.0726335
-0.0736495
-0.0747199
-0.075799
-0.0768479
-0.0777428
-0.0784544
-0.0789737
-0.0793409
-0.0796571
-0.0800575
-0.0805336
-0.0811085
-0.0815817
-0.0817606
-0.081452
-0.0806553
-0.0795827
-0.0784683
-0.0776537
-0.0772671
-0.0773218
-0.0777436
-0.0784774
-0.0796162
-0.0813237
-0.0837991
-0.0871634
-0.0912897
-0.0959167
-0.100544
-0.104773
-0.108205
-0.110485
-0.111243
-0.110096
-0.106609
-0.10051
-0.0916416
-0.0802035
-0.0667921
-0.0523553
-0.037912
-0.024429
-0.0126094
-0.00261414
0.00582741
0.0133715
0.020789
0.0286786
0.0373598
0.0467053
0.0562504
0.065416
0.0736235
0.0806496
0.0864828
0.0913084
0.0954211
0.0989293
0.101782
0.103843
0.104925
0.105009
0.104294
0.103144
0.10203
0.101429
0.101629
0.102686
0.104352
0.106302
0.107984
0.108911
0.108737
0.107399
0.105014
0.101831
0.0982723
0.0946123
0.0911048
0.08786
0.0848623
0.0820616
0.0793045
0.0764495
0.0734431
0.0702016
0.0668604
0.0636474
0.0608631
0.0587696
0.0575358
0.0570765
0.0571027
0.057182
0.0568543
0.0557591
0.0538325
0.0511883
0.0482041
0.0451732
0.0423894
0.03997
0.037851
0.0359108
0.0339388
0.0317888
0.0294156
0.0268474
0.0242259
0.0218061
0.0197538
0.0183235
0.0175531
0.0173513
0.0174719
0.0175744
0.0173237
0.0165054
0.0150586
0.013039
0.0107132
0.00825771
0.00582342
0.00357371
0.00149932
-0.000356177
-0.00197671
-0.00330675
-0.00437841
-0.00519537
-0.00585028
-0.00643427
-0.00710751
-0.00789652
-0.0087435
-0.00954447
-0.010006
-0.00989252
-0.00908484
-0.00766813
-0.00600598
-0.00464752
-0.00407488
-0.00459017
-0.00611243
-0.00822191
-0.0103663
-0.0120773
-0.0131449
-0.0136179
-0.0136184
-0.0131842
-0.0121011
-0.00988642
-0.00599106
-0.000174837
0.00756547
0.016625
0.0261979
0.0354685
0.0438189
0.0511866
0.0578721
0.0643057
0.0708463
0.0774617
0.0837568
0.0890728
0.092747
0.0944147
0.093958
0.0916731
0.0880459
0.0836686
0.0792278
0.0754259
0.0730139
0.0724993
0.0738745
0.0763984
0.0786559
0.0789048
0.0755116
0.0675686
0.055189
0.0394408
0.022137
0.0051778
-0.00984962
-0.0219337
-0.0307331
-0.0363881
-0.0393994
-0.0404389
-0.0403798
-0.0400506
-0.0400866
-0.0408199
-0.0421866
-0.0437694
-0.0450275
-0.0455263
-0.0452631
-0.0446333
-0.0442374
-0.0445436
-0.045596
-0.0469633
-0.0480037
-0.0480545
-0.0470619
-0.046008
-0.0469339
-0.0525183
-0.0653599
-0.0871567
-0.117877
-0.154946
-0.192787
-0.222879
-0.234063
-0.21364
-0.149402
-0.0328817
0.136625
0.348459
0.578967
0.793481
0.95305
1.02422
0.989177
0.85227
0.639957
0.393885
0.159052
-0.0286119
-0.150625
-0.207768
-0.215454
-0.195452
-0.167756
-0.145336
-0.132891
-0.12918
-0.130427
-0.133048
-0.134985
-0.135771
-0.135737
-0.135316
-0.134675
-0.133708
-0.132429
-0.130965
-0.129673
-0.128857
-0.128665
-0.128901
-0.129096
-0.128757
-0.127424
-0.124996
-0.121701
-0.118015
-0.114418
-0.111311
-0.108858
-0.106969
-0.105472
-0.104174
-0.103021
-0.102015
-0.10121
-0.10061
-0.100149
-0.0996531
-0.0989166
-0.0978012
-0.096214
-0.0942723
-0.0921882
-0.0902604
-0.0886682
-0.0874479
-0.0865702
-0.085782
-0.0848778
-0.0836563
-0.0819602
-0.0797838
-0.0772525
-0.0745883
-0.0720413
-0.0698921
-0.0682405
-0.0670922
-0.066224
-0.0654247
-0.0644265
-0.0632048
-0.0619593
-0.06103
-0.0608173
-0.0615959
-0.0634272
-0.065991
-0.0687654
-0.0710698
-0.0724376
-0.0727096
-0.0719904
-0.0708523
-0.069946
-0.0698234
-0.0708583
-0.0729271
-0.075648
-0.078337
-0.080266
-0.0807286
-0.0793505
-0.0758957
-0.0704328
-0.0630748
-0.0541373
-0.0439427
-0.0329325
-0.021781
-0.0111392
-0.00165175
0.00628364
0.012547
0.0174122
0.0213049
0.0248245
0.0283709
0.0321366
0.0361582
0.0403453
0.0446776
0.0491793
0.0538613
0.0587797
0.0638014
0.0686754
0.0730613
0.0767409
0.0795566
0.0815775
0.0829982
0.0839762
0.0846236
0.0848839
0.0847109
0.0840025
0.08277
0.0811563
0.0794535
0.077846
0.076567
0.0755969
0.074884
0.0741795
0.0732572
0.0719719
0.0701881
0.0679687
0.0654595
0.0627879
0.0600741
0.0574287
0.0548728
0.0525121
0.0504609
0.0488154
0.0475014
0.0464302
0.0453114
0.0438794
0.041868
0.039216
0.0360675
0.0327358
0.0294666
0.0266145
0.0242429
0.0223106
0.0206725
0.0192102
0.0177745
0.0163123
0.0148661
0.0134554
0.0121681
0.0110218
0.0100091
0.00910782
0.00835896
0.00766868
0.00697352
0.00617252
0.00515497
0.00389283
0.00241394
0.000793127
-0.000856118
-0.00248291
-0.00409174
-0.00582754
-0.00779452
-0.0100776
-0.0126571
-0.0152539
-0.0175839
-0.019348
-0.0203296
-0.0206639
-0.0206112
-0.0206136
-0.0210677
-0.0220961
-0.0235027
-0.0249489
-0.0260222
-0.0264464
-0.0262045
-0.0254704
-0.0244804
-0.0235458
-0.0227669
-0.0221224
-0.0215093
-0.0206765
-0.0194135
-0.0174422
-0.0144091
-0.0100943
-0.00430213
0.00284562
0.0109668
0.0193952
0.0273485
0.0343099
0.0399655
0.0445928
0.0487185
0.0529819
0.057866
0.0634808
0.0694719
0.075362
0.0805081
0.0843833
0.0867316
0.0875771
0.0871716
0.0858404
0.083955
0.0816146
0.0788526
0.0755747
0.0716663
0.0673267
0.0631206
0.0597896
0.0580022
0.0578337
0.0586044
0.0588478
0.0568531
0.0511947
0.0413764
0.0279797
0.0124506
-0.00330477
-0.0175056
-0.0290983
-0.0377106
-0.0435593
-0.0471957
-0.0491853
-0.0500593
-0.0503533
-0.0505262
-0.0510211
-0.0522307
-0.0543599
-0.0573432
-0.0608498
-0.0643234
-0.0670553
-0.0685247
-0.06842
-0.0668642
-0.0644219
-0.0620951
-0.06136
-0.0640593
-0.0720699
-0.0869198
-0.109522
-0.139468
-0.174479
-0.209712
-0.237721
-0.248664
-0.23132
-0.174731
-0.0710132
0.0810244
0.272976
0.485029
0.687248
0.844801
0.926024
0.911486
0.800612
0.613324
0.385232
0.158004
-0.0320688
-0.162965
-0.230349
-0.245081
-0.226522
-0.194887
-0.165185
-0.144914
-0.134967
-0.132517
-0.133884
-0.136224
-0.13798
-0.138704
-0.138362
-0.136901
-0.134424
-0.131187
-0.127613
-0.124311
-0.121701
-0.119954
-0.118937
-0.118254
-0.117552
-0.116631
-0.115413
-0.113958
-0.11243
-0.11087
-0.109312
-0.107697
-0.106003
-0.104208
-0.102366
-0.100535
-0.0987491
-0.0970361
-0.0953924
-0.0938625
-0.0924942
-0.0913641
-0.0904636
-0.0896995
-0.0889183
-0.0879011
-0.0865032
-0.0847714
-0.0828196
-0.0809174
-0.0792758
-0.0780045
-0.0771964
-0.076821
-0.0767998
-0.0770367
-0.0773714
-0.0776256
-0.0775218
-0.0769025
-0.0756134
-0.0738012
-0.0716604
-0.0694328
-0.0673869
-0.0656151
-0.0641714
-0.063087
-0.062337
-0.0618545
-0.0615514
-0.0613006
-0.0609873
-0.0605709
-0.0601437
-0.0600047
-0.0605411
-0.0621767
-0.0650326
-0.0691033
-0.0739436
-0.0790229
-0.0837007
-0.0873503
-0.0894516
-0.0895803
-0.0874875
-0.0829641
-0.076122
-0.0672905
-0.0569858
-0.0459397
-0.0349056
-0.0246127
-0.0154823
-0.00767999
-0.00110212
0.00450711
0.00958156
0.0144936
0.0194504
0.0246143
0.0299133
0.03513
0.0400454
0.0445107
0.0483259
0.0515046
0.0541289
0.056398
0.0584964
0.0605969
0.0627689
0.0649074
0.0668379
0.068415
0.0695367
0.0701278
0.0700503
0.069334
0.0678492
0.0655769
0.0625975
0.0592609
0.0559076
0.0530991
0.0513559
0.050853
0.051685
0.0536763
0.0563467
0.059107
0.0612855
0.0622743
0.0615805
0.05898
0.0545943
0.048861
0.0425105
0.0363291
0.0310741
0.0272674
0.0249607
0.0239869
0.0238625
0.0239746
0.0238601
0.0232178
0.0220007
0.020247
0.0181073
0.0156204
0.0128269
0.00980296
0.00653981
0.00319994
-5.9414e-5
-0.00298155
-0.0052461
-0.00664631
-0.0070373
-0.00646366
-0.00515135
-0.00350282
-0.00201919
-0.00115896
-0.00120981
-0.00233741
-0.00430177
-0.00698361
-0.0100267
-0.0132221
-0.0163714
-0.0193432
-0.022018
-0.0243435
-0.0262097
-0.0275989
-0.0285936
-0.0292652
-0.0297355
-0.0300544
-0.0302048
-0.0301132
-0.029751
-0.0290913
-0.0283127
-0.027657
-0.0273462
-0.0275428
-0.0281865
-0.0290592
-0.0298003
-0.0300659
-0.0296371
-0.0283969
-0.0265135
-0.0242337
-0.0219696
-0.020207
-0.0193672
-0.0196845
-0.0212319
-0.0236474
-0.0260811
-0.027474
-0.0265385
-0.0224153
-0.0148491
-0.00437554
0.007763
0.0198542
0.0304264
0.0385253
0.0438255
0.0469441
0.0488514
0.0506146
0.0530549
0.0565647
0.0609154
0.0656703
0.0701956
0.0738815
0.0764244
0.0777602
0.0778876
0.0768775
0.0747321
0.0715238
0.0674191
0.0629604
0.0589443
0.0563336
0.0558241
0.0573086
0.0598739
0.0618943
0.0614919
0.0572249
0.048643
0.0362785
0.0215373
0.00614707
-0.0084516
-0.0214145
-0.0323237
-0.0412423
-0.0482442
-0.0533029
-0.0565677
-0.0583711
-0.0593326
-0.060354
-0.0621862
-0.0652867
-0.0694976
-0.0740248
-0.0777819
-0.0796778
-0.0792202
-0.0764396
-0.0721196
-0.0673265
-0.0631785
-0.0605403
-0.0597614
-0.0610507
-0.0645893
-0.0709656
-0.0811008
-0.0961671
-0.117015
-0.143392
-0.173314
-0.202971
-0.227282
-0.240888
-0.239254
-0.219222
-0.178986
-0.116723
-0.0298773
0.0846064
0.228592
0.399385
0.586549
0.770032
0.922093
1.01306
1.01994
0.93424
0.766245
0.543798
0.304936
0.0877356
-0.079618
-0.184649
-0.231095
-0.2342
-0.213775
-0.187331
-0.166012
-0.154042
-0.150548
-0.152277
-0.155728
-0.158546
-0.159565
-0.158401
-0.155162
-0.150207
-0.144238
-0.13821
-0.133115
-0.129601
-0.127884
-0.127539
-0.127649
-0.127342
-0.125887
-0.123065
-0.119205
-0.115081
-0.111613
-0.109609
-0.109445
-0.111072
-0.11396
-0.11719
-0.119803
-0.120975
-0.120278
-0.11778
-0.114024
-0.109886
-0.106225
-0.103703
-0.102496
-0.102493
-0.103241
-0.104177
-0.104839
-0.104984
-0.104546
-0.103515
-0.102022
-0.100141
-0.0980715
-0.0959848
-0.0940756
-0.0924962
-0.0914168
-0.0907973
-0.0905767
-0.09066
-0.0907992
-0.0906877
-0.090043
-0.0886472
-0.086512
-0.0839153
-0.0813687
-0.0794664
-0.0787971
-0.0794828
-0.0812519
-0.0834909
-0.0854984
-0.0867482
-0.0871826
-0.0872228
-0.0876097
-0.0891262
-0.0921271
-0.0965235
-0.101719
-0.106865
-0.110995
-0.113419
-0.113699
-0.111666
-0.107317
-0.100902
-0.0927748
-0.0834989
-0.0738284
-0.0645763
-0.0564849
-0.050057
-0.0453384
-0.0420052
-0.0393874
-0.0367641
-0.0335225
-0.0292478
-0.0238873
-0.0175799
-0.0106362
-0.0032766
0.00425466
0.0118313
0.0194208
0.0270329
0.034743
0.0424941
0.0501967
0.057615
0.0643475
0.0700079
0.0742434
0.0769655
0.0783616
0.0788596
0.0790678
0.079538
0.080657
0.0824928
0.0847746
0.0871406
0.0891341
0.0904269
0.0908912
0.0906602
0.0899907
0.0891146
0.0882806
0.0875341
0.0867428
0.0856862
0.0841174
0.0818736
0.0789293
0.0754078
0.0715395
0.067581
0.0637485
0.0601914
0.056998
0.0542411
0.0520332
0.0505794
0.0499895
0.0503067
0.0514728
0.0531079
0.0548
0.0560575
0.0564661
0.0556587
0.0534836
0.0499511
0.0452216
0.0396164
0.0336163
0.0277977
0.0226452
0.0185278
0.0155192
0.0134562
0.0119414
0.0105637
0.00911764
0.00766052
0.00648413
0.00594578
0.00625851
0.00727233
0.00852597
0.00937484
0.00918308
0.00774124
0.0051695
0.00196539
-0.00122017
-0.00391872
-0.00585523
-0.00704648
-0.00779963
-0.00836594
-0.00895061
-0.00964903
-0.0104196
-0.0113062
-0.0123585
-0.0136451
-0.0151651
-0.0168167
-0.0183957
-0.019625
-0.020335
-0.0204581
-0.020123
-0.0195907
-0.0189784
-0.0183458
-0.0176032
-0.0166704
-0.0154296
-0.0139801
-0.0125843
-0.0114729
-0.0108936
-0.0108551
-0.0109995
-0.0107236
-0.0091846
-0.00567244
6.46899e-5
0.00784392
0.0169217
0.0262411
0.0348296
0.0420331
0.0477627
0.0523245
0.0562772
0.060253
0.0646154
0.0695287
0.0747116
0.0796556
0.0837354
0.0863395
0.0870408
0.0857821
0.0829225
0.0791959
0.0754526
0.0723251
0.0699991
0.0681364
0.066144
0.063408
0.0597748
0.055566
0.0517077
0.0492201
0.0486006
0.0496517
0.0512345
0.0518051
0.0498543
0.0443791
0.0353108
0.0234025
0.00995479
-0.00356681
-0.0158693
-0.0261406
-0.0340429
-0.039594
-0.0430668
-0.0449696
-0.0458455
-0.0462328
-0.0465779
-0.0471085
-0.0480312
-0.0493393
-0.0509988
-0.0527547
-0.054417
-0.0557808
-0.0566087
-0.0568036
-0.0563168
-0.0553837
-0.0543469
-0.05386
-0.0548744
-0.058591
-0.0663169
-0.0792444
-0.0982507
-0.123289
-0.152768
-0.183018
-0.207796
-0.218289
-0.203679
-0.152393
-0.0548854
0.0926521
0.284609
0.50331
0.719381
0.89635
0.999113
1.00374
0.905538
0.721797
0.48765
0.246599
0.0381441
-0.111908
-0.196044
-0.223227
-0.212321
-0.184126
-0.155018
-0.133957
-0.12304
-0.120152
-0.121715
-0.12465
-0.127045
-0.128305
-0.128421
-0.127526
-0.125837
-0.123597
-0.12105
-0.118423
-0.115896
-0.113549
-0.111356
-0.109344
-0.107397
-0.105632
-0.104074
-0.102858
-0.102016
-0.101477
-0.101033
-0.100456
-0.0994766
-0.0979988
-0.0960935
-0.0938554
-0.0915033
-0.0891895
-0.087017
-0.0849497
-0.0830116
-0.0811581
-0.0794084
-0.0778272
-0.0763968
-0.0750762
-0.0737359
-0.0722824
-0.0706732
-0.0689775
-0.0673719
-0.066029
-0.0651215
-0.064668
-0.0645815
-0.0645853
-0.0643394
-0.0635611
-0.0621045
-0.0599616
-0.0573664
-0.0547307
-0.0524371
-0.0507972
-0.0500629
-0.0501819
-0.0509783
-0.0521714
-0.0535712
-0.0550064
-0.0564986
-0.0580641
-0.0598154
-0.0617486
-0.0638575
-0.0660123
-0.0682275
-0.0706135
-0.0732614
-0.0763885
-0.0800096
-0.0840504
-0.0882349
-0.0920878
-0.0950728
-0.0966396
-0.0961947
-0.0932585
-0.0876305
-0.0794512
-0.0690588
-0.0572551
-0.0448362
-0.0327342
-0.021583
-0.0117126
-0.00313105
0.0043956
0.0113288
0.0180884
0.0250952
0.0325126
0.0403824
0.0486387
0.0570557
0.0655238
0.0738718
0.0819967
0.0898283
0.0971543
0.103824
0.109702
0.11462
0.118476
0.121245
0.122999
0.123897
0.124184
0.124047
0.123703
0.123266
0.122601
0.121565
0.119971
0.117755
0.115121
0.112435
0.110079
0.108315
0.107044
0.105885
0.104286
0.101835
0.0984484
0.0944637
0.090545
0.0873491
0.0853318
0.0844864
0.0844302
0.0845879
0.0844326
0.083616
0.0821331
0.0802828
0.0784296
0.0768435
0.075658
0.0747376
0.0737381
0.0722917
0.0701143
0.0671302
0.0635546
0.0597131
0.0560713
0.0529712
0.0506323
0.049135
0.0483627
0.0480981
0.0479863
0.0477166
0.0469077
0.0454458
0.0433152
0.0406745
0.0378252
0.0350972
0.0327452
0.0308428
0.029318
0.0280666
0.0269353
0.0257451
0.0244218
0.0229565
0.021373
0.0197271
0.0180811
0.0165444
0.0152193
0.014189
0.0135043
0.0131126
0.0129313
0.0126223
0.0119573
0.0107338
0.00890864
0.0065618
0.00399156
0.0016332
-0.000148096
-0.00107706
-0.00109967
-0.000357449
0.000889204
0.00229122
0.00348722
0.0042891
0.0046597
0.00457312
0.00414387
0.00343829
0.00250242
0.0014065
0.000336731
-0.000461184
-0.000533814
0.000535312
0.00325651
0.00792958
0.0146503
0.0231404
0.0328782
0.0430623
0.0529381
0.0618085
0.0693057
0.075337
0.0802485
0.0845616
0.0887832
0.0933008
0.0981849
0.103089
0.107367
0.110206
0.110834
0.108855
0.104427
0.0982953
0.0915801
0.0855147
0.0809786
0.0783851
0.0774172
0.0775078
0.0780548
0.0787706
0.0796652
0.0810226
0.0827607
0.0842515
0.0843853
0.0818711
0.075616
0.0653549
0.0516679
0.0358189
0.0193873
0.00384302
-0.00980626
-0.0210399
-0.0296473
-0.0357649
-0.0396269
-0.0416263
-0.0423624
-0.0423177
-0.0420155
-0.0417548
-0.0416753
-0.0418285
-0.042224
-0.0428767
-0.0437365
-0.0447653
-0.0457493
-0.0464105
-0.0466604
-0.0465678
-0.0465702
-0.0477267
-0.0513482
-0.0589512
-0.0718329
-0.0909025
-0.116286
-0.146807
-0.179936
-0.211724
-0.237488
-0.252518
-0.252996
-0.236455
-0.200967
-0.143952
-0.0613428
0.0519506
0.199168
0.377575
0.574273
0.764783
0.916244
0.995744
0.980569
0.867044
0.673627
0.436707
0.199901
0.00175871
-0.134437
-0.204478
-0.220395
-0.203113
-0.173728
-0.147286
-0.130547
-0.123506
-0.122667
-0.124126
-0.125282
-0.125278
-0.124293
-0.122857
-0.121269
-0.119752
-0.118287
-0.116879
-0.115418
-0.113838
-0.111962
-0.109728
-0.107256
-0.105022
-0.103378
-0.102677
-0.102944
-0.10382
-0.104754
-0.104997
-0.104053
-0.10175
-0.0982432
-0.0940734
-0.0898552
-0.0861871
-0.0834348
-0.0816997
-0.0807337
-0.0801687
-0.0796689
-0.0788516
-0.0776523
-0.0761675
-0.0746341
-0.0733138
-0.0723645
-0.0717739
-0.0714571
-0.0710824
-0.0704188
-0.0693038
-0.0676605
-0.06568
-0.0636201
-0.0619242
-0.0608806
-0.060569
-0.0608297
-0.0611892
-0.0611686
-0.0603615
-0.0586164
-0.0561595
-0.053479
-0.0510955
-0.0494393
-0.0487935
-0.0491026
-0.050116
-0.0514931
-0.0528957
-0.0540543
-0.0549357
-0.055589
-0.0563521
-0.0574672
-0.0591041
-0.0613288
-0.0639239
-0.0665995
-0.0689501
-0.0706889
-0.071518
-0.071138
-0.0691852
-0.065234
-0.0589697
-0.0503519
-0.0396926
-0.0277712
-0.0157532
-0.00482601
0.00418008
0.0108944
0.0156471
0.0191668
0.0223415
0.0258775
0.0301944
0.0352852
0.0409859
0.046962
0.0528317
0.0583573
0.0632768
0.0674213
0.0707354
0.0732962
0.0753046
0.076976
0.0784959
0.0798658
0.0810069
0.0817363
0.0819042
0.0815534
0.0808554
0.0800425
0.0793821
0.0790157
0.0788352
0.0786402
0.0781678
0.0771596
0.0755492
0.0734126
0.0709448
0.0682824
0.0655919
0.0628538
0.0600585
0.0572285
0.0544507
0.0519257
0.0497973
0.0482182
0.0471439
0.0465017
0.0460608
0.0455943
0.0449551
0.0439341
0.0425111
0.0407049
0.0385654
0.036174
0.0335419
0.0308231
0.0280255
0.0252673
0.0226227
0.0201317
0.0177267
0.0152416
0.0125063
0.00937083
0.00583617
0.00221534
-0.00111409
-0.00377403
-0.00550035
-0.00638019
-0.00676924
-0.00718691
-0.00802808
-0.00945754
-0.0113388
-0.01328
-0.0149419
-0.0159754
-0.0164359
-0.0165498
-0.0165881
-0.0169864
-0.0179328
-0.0194333
-0.0212893
-0.0231801
-0.0247951
-0.025887
-0.0264628
-0.0266688
-0.0267458
-0.0269831
-0.0274754
-0.0281644
-0.02884
-0.0292547
-0.0292637
-0.0288212
-0.0280521
-0.027131
-0.0262652
-0.0255671
-0.0249949
-0.0244991
-0.0238876
-0.0231035
-0.0221873
-0.0213126
-0.0207157
-0.020476
-0.0204578
-0.0201916
-0.0188798
-0.0156913
-0.010088
-0.00200545
0.00798182
0.0187732
0.0292346
0.0384687
0.0461326
0.0524743
0.0581744
0.0639499
0.0702007
0.0767726
0.0829955
0.0879345
0.0907356
0.090858
0.0882684
0.0835333
0.0775372
0.0713583
0.0659425
0.0617344
0.0586702
0.0563612
0.0542271
0.0519723
0.0499051
0.0488025
0.0495154
0.052445
0.056909
0.0613187
0.0634568
0.0614403
0.054322
0.0425535
0.0277285
0.0119817
-0.00272688
-0.0151995
-0.0251163
-0.0327513
-0.0385472
-0.0428218
-0.0457109
-0.0473078
-0.0478637
-0.047779
-0.0476032
-0.0478783
-0.048821
-0.0503403
-0.052073
-0.0535664
-0.0544185
-0.0544347
-0.0535439
-0.0519995
-0.0502277
-0.0488417
-0.0485868
-0.0504476
-0.0554695
-0.0646787
-0.0789771
-0.0987821
-0.123701
-0.151994
-0.180438
-0.204602
-0.219332
-0.21971
-0.201514
-0.160982
-0.0943724
0.00196157
0.130169
0.288404
0.467569
0.649191
0.806416
0.909022
0.931684
0.862797
0.710073
0.499878
0.270467
0.0612301
-0.0981496
-0.194357
-0.231268
-0.225061
-0.196539
-0.163844
-0.1382
-0.123319
-0.117722
-0.117769
-0.119998
-0.122332
-0.124085
-0.125244
-0.125958
-0.126324
-0.126324
-0.125945
-0.125194
-0.124261
-0.123322
-0.122476
-0.121689
-0.120864
-0.119738
-0.118094
-0.115741
-0.112775
-0.109454
-0.106145
-0.103242
-0.101091
-0.0997548
-0.0991141
-0.0989192
-0.0988047
-0.0985069
-0.0978982
-0.0968026
-0.0953216
-0.0936111
-0.0918726
-0.0903305
-0.0890471
-0.0880451
-0.0871497
-0.0861722
-0.0850054
-0.0837753
-0.0825804
-0.0816022
-0.0809783
-0.080597
-0.080281
-0.0797862
-0.0790627
-0.0782546
-0.077597
-0.0772881
-0.0771963
-0.0769551
-0.0760384
-0.0741326
-0.0712394
-0.0677469
-0.0643294
-0.0617141
-0.0602746
-0.059941
-0.0603009
-0.0607753
-0.0608953
-0.0606524
-0.0603659
-0.0605858
-0.0618922
-0.0645289
-0.0682835
-0.0726042
-0.0766475
-0.0796157
-0.0809939
-0.0805991
-0.0786057
-0.0753693
-0.0713438
-0.0666711
-0.0614137
-0.0551793
-0.047541
-0.0382849
-0.0275776
-0.0160017
-0.00458045
0.00558852
0.0136864
0.0194049
0.0230716
0.0255381
0.0278145
0.0308073
0.0349502
0.0401819
0.045978
0.0515918
0.0562213
0.0593276
0.0607055
0.060451
0.0590456
0.0570235
0.0551127
0.0538569
0.0537545
0.0549265
0.0572094
0.0600265
0.0626327
0.0642033
0.0640923
0.0619955
0.0581505
0.0532431
0.048274
0.0442596
0.0419628
0.0415842
0.0427791
0.0446638
0.0461805
0.0464296
0.0450037
0.0420082
0.0380827
0.0340196
0.0303954
0.0276292
0.0256049
0.0240693
0.0226403
0.0210221
0.0190437
0.0167059
0.0140643
0.0112384
0.00827083
0.00532222
0.00237894
-0.000492561
-0.00337096
-0.00628916
-0.00932244
-0.0124504
-0.0155627
-0.0184592
-0.0209082
-0.0228451
-0.0242757
-0.0253562
-0.026355
-0.0273737
-0.0283283
-0.0290608
-0.0292559
-0.0288192
-0.0278551
-0.0267181
-0.0259678
-0.0261085
-0.0273943
-0.0297953
-0.032865
-0.0360339
-0.0386518
-0.0403047
-0.0407813
-0.0402981
-0.0392805
-0.0382542
-0.037624
-0.0376201
-0.038111
-0.0387864
-0.0391689
-0.0389209
-0.0379249
-0.0363925
-0.0347819
-0.0336161
-0.0331942
-0.0334268
-0.0336727
-0.0330407
-0.0305196
-0.0254881
-0.0179398
-0.00854516
0.00160193
0.0112842
0.0196732
0.0265419
0.032226
0.0374746
0.0429923
0.0489937
0.0551248
0.0606277
0.064433
0.0658457
0.0645444
0.0608286
0.0554954
0.0496356
0.044346
0.0405834
0.0390611
0.0401015
0.0433551
0.0478038
0.0517848
0.0534198
0.0510051
0.0436462
0.0314125
0.0155418
-0.00206474
-0.0193254
-0.0345697
-0.0468283
-0.0559791
-0.0622904
-0.0663288
-0.0686929
-0.0697733
-0.0699601
-0.0695811
-0.0689328
-0.06825
-0.0677858
-0.0676042
-0.0676811
-0.0679239
-0.0682867
-0.0686791
-0.0688696
-0.068705
-0.0679753
-0.0665116
-0.0644676
-0.062211
-0.0604388
-0.0599461
-0.061656
-0.0664095
-0.0751494
-0.0885654
-0.10738
-0.131939
-0.161739
-0.194766
-0.226883
-0.251658
-0.260489
-0.243085
-0.188972
-0.090076
0.0563238
0.243796
0.454852
0.661166
0.828009
0.922327
0.921826
0.822784
0.642587
0.415768
0.184481
-0.0133035
-0.153192
-0.228739
-0.249242
-0.233556
-0.202036
-0.1705
-0.147538
-0.135158
-0.131345
-0.132653
-0.135814
-0.138735
-0.140317
-0.140165
-0.138421
-0.135625
-0.132517
-0.129687
-0.127603
-0.126321
-0.125568
-0.125064
-0.124581
-0.123973
-0.123229
-0.122199
-0.120791
-0.118903
-0.116601
-0.11413
-0.111956
-0.110469
-0.109714
-0.109457
-0.109132
-0.108008
-0.105668
-0.102123
-0.0978649
-0.0937361
-0.0906943
-0.089272
-0.0895491
-0.0910658
-0.0929449
-0.0943767
-0.0947621
-0.0939535
-0.0921616
-0.0898345
-0.0873476
-0.0850755
-0.0831738
-0.0817031
-0.0806336
-0.0799083
-0.0793011
-0.0785511
-0.077482
-0.0759781
-0.0741884
-0.0724784
-0.071221
-0.0705493
-0.0704498
-0.0705718
-0.0705569
-0.070206
-0.0695553
-0.0689174
-0.0686376
-0.0689658
-0.0700252
-0.0717237
-0.0739407
-0.0765892
-0.0797865
-0.0836396
-0.0882845
-0.0936765
-0.099474
-0.10513
-0.110027
-0.113566
-0.115316
-0.114952
-0.112197
-0.106762
-0.0982947
-0.0867084
-0.0720311
-0.05485
-0.0361517
-0.0172533
0.000492714
0.0160587
0.0288373
0.0388273
0.0464528
0.0522708
0.05694
0.0608446
0.0642603
0.0672262
0.0698125
0.0722323
0.0748357
0.0780975
0.0823631
0.0876565
0.0934764
0.0989127
0.102871
0.104454
0.103284
0.0998187
0.0950247
0.0901872
0.0862468
0.0837046
0.0823424
0.08153
0.0807053
0.079526
0.0780618
0.0767863
0.0761025
0.0762712
0.0770753
0.0779626
0.0781508
0.0770678
0.0744244
0.0703783
0.0655916
0.0608646
0.0570185
0.0545241
0.0534316
0.0533206
0.0535267
0.0533354
0.0522328
0.0500122
0.0468578
0.043046
0.0391369
0.0355486
0.0325216
0.0301239
0.0281884
0.0264113
0.0245104
0.022247
0.0196039
0.0166879
0.0138327
0.0113279
0.00944569
0.00835512
0.00798797
0.00810371
0.00847132
0.00886601
0.00911672
0.00921815
0.00927531
0.0093938
0.00956544
0.00963645
0.00938167
0.00864877
0.00734414
0.00565139
0.003939
0.00254285
0.00182063
0.00187176
0.00244017
0.00311927
0.00331585
0.00255923
0.000628344
-0.00229854
-0.00566121
-0.00862807
-0.0102207
-0.0095405
-0.00608982
8.23734e-5
0.00848191
0.0181757
0.0281651
0.0376348
0.0461697
0.0537618
0.0607279
0.0674693
0.0740939
0.0804265
0.0860071
0.0903348
0.0929713
0.093753
0.0928143
0.0904282
0.0870696
0.083228
0.0794881
0.0765031
0.0748352
0.0747504
0.0758563
0.0771469
0.0770824
0.0741458
0.0671966
0.0561374
0.0418648
0.0259318
0.0101842
-0.00377607
-0.0150469
-0.0233501
-0.0288588
-0.0319728
-0.0332078
-0.0330871
-0.0322112
-0.0312131
-0.0305436
-0.0304195
-0.0308194
-0.0313088
-0.0313744
-0.0306401
-0.0290178
-0.0267465
-0.0243526
-0.0223977
-0.021232
-0.0209001
-0.0210992
-0.0214746
-0.0217389
-0.0219227
-0.0228569
-0.0260492
-0.0334532
-0.0471076
-0.0685023
-0.0977494
-0.132553
-0.167618
-0.194441
-0.201685
-0.176441
-0.106817
0.014675
0.186913
0.397084
0.61963
0.81931
0.958347
1.00638
0.94988
0.797516
0.578812
0.336223
0.113249
-0.0575272
-0.161551
-0.202784
-0.198478
-0.170728
-0.138775
-0.114356
-0.101183
-0.0974012
-0.0990406
-0.102321
-0.105003
-0.106433
-0.106751
-0.106276
-0.105255
-0.10391
-0.102435
-0.10108
-0.100084
-0.0995223
-0.0992188
-0.0989222
-0.0983318
-0.0972218
-0.0956523
-0.0936744
-0.0915942
-0.089655
-0.0880791
-0.0869892
-0.0864128
-0.0861845
-0.0860012
-0.085528
-0.0842998
-0.0821348
-0.0790627
-0.0753443
-0.0714524
-0.0679275
-0.0652427
-0.0636522
-0.0631711
-0.0636332
-0.0647189
-0.0660774
-0.0674338
-0.0685433
-0.0693277
-0.069851
-0.0701465
-0.0703868
-0.0705798
-0.0707311
-0.0707087
-0.0704285
-0.0698373
-0.0690064
-0.0681035
-0.0674175
-0.0672419
-0.0677268
-0.0688638
-0.0704776
-0.0721354
-0.0734652
-0.0741377
-0.0740156
-0.0732349
-0.0721695
-0.0713406
-0.071302
-0.0724854
-0.0750685
-0.0788721
-0.0834157
-0.0880746
-0.0922645
-0.0955921
-0.0978978
-0.0993645
-0.100151
-0.100346
-0.0998415
-0.0982518
-0.0948816
-0.0891424
-0.0806932
-0.069663
-0.0566282
-0.0426278
-0.0288598
-0.0163316
-0.00567342
0.00300454
0.010155
0.0164822
0.0227484
0.0294965
0.037023
0.0453083
0.0541339
0.0630883
0.0717357
0.0795773
0.0861019
0.0909717
0.0939007
0.0949968
0.0946535
0.0935484
0.0922994
0.0914381
0.0911477
0.0913224
0.0916507
0.0917696
0.0914892
0.090829
0.0899282
0.0890742
0.0884743
0.0881547
0.0880682
0.0880267
0.0877052
0.0867873
0.0850172
0.0822903
0.0785831
0.0741955
0.0695589
0.0652329
0.0618014
0.0596056
0.0586309
0.0584503
0.0584347
0.057846
0.0562239
0.0535411
0.0501748
0.0467783
0.0440314
0.0423271
0.0417486
0.0418911
0.0421633
0.0420117
0.0410324
0.0390134
0.0361511
0.0327826
0.0292792
0.0259067
0.0228388
0.0200773
0.0175822
0.0153935
0.0135943
0.0122877
0.0114885
0.0110504
0.010622
0.00987864
0.00847938
0.00631995
0.00359622
0.000720125
-0.00178423
-0.0034838
-0.00423328
-0.00410246
-0.00342332
-0.00258599
-0.00202901
-0.00188214
-0.00217008
-0.00265636
-0.00308172
-0.00328344
-0.003271
-0.00325464
-0.00349363
-0.00425873
-0.00566131
-0.00766516
-0.010014
-0.012414
-0.0144989
-0.016186
-0.0174115
-0.0181418
-0.0183538
-0.0178008
-0.0161567
-0.0129423
-0.00782038
-0.000637278
0.00840462
0.0186324
0.0290653
0.0386238
0.0464288
0.0519663
0.0553724
0.0573157
0.0587269
0.0605612
0.0633692
0.0672934
0.0720822
0.0771772
0.0820368
0.0862211
0.0893945
0.0913155
0.0918252
0.0906881
0.0877931
0.0832367
0.0774138
0.0710657
0.0652654
0.0612104
0.0598778
0.0615569
0.0656077
0.0704407
0.0739064
0.0738235
0.0687592
0.0583598
0.0435464
0.0260736
0.00819448
-0.00817844
-0.0218113
-0.032253
-0.0397314
-0.0446781
-0.0478039
-0.049609
-0.0505863
-0.0511872
-0.0517731
-0.0526854
-0.0540773
-0.0559369
-0.0580373
-0.0599815
-0.0615035
-0.0623991
-0.0626391
-0.0623607
-0.0617371
-0.0608352
-0.0599076
-0.0592687
-0.0594515
-0.0613171
-0.0659662
-0.074591
-0.0882882
-0.107696
-0.132837
-0.162823
-0.195
-0.224745
-0.245269
-0.247808
-0.222128
-0.158106
-0.0483849
0.108324
0.303987
0.519203
0.724151
0.88339
0.964147
0.945905
0.82771
0.630181
0.390774
0.153461
-0.0435554
-0.177284
-0.243786
-0.255345
-0.233061
-0.198485
-0.167256
-0.14662
-0.136895
-0.134761
-0.136248
-0.138406
-0.139957
-0.140785
-0.141122
-0.141078
-0.140573
-0.139566
-0.138005
-0.135928
-0.133505
-0.130933
-0.128326
-0.12581
-0.123362
-0.120974
-0.118512
-0.115904
-0.113101
-0.110052
-0.106874
-0.103705
-0.100701
-0.0980127
-0.0958314
-0.0942295
-0.0931961
-0.092606
-0.0921671
-0.0915371
-0.0903363
-0.0884479
-0.0859628
-0.0831265
-0.0803834
-0.078219
-0.0768798
-0.0763729
-0.0765916
-0.0772154
-0.0779176
-0.0783697
-0.078339
-0.0775588
-0.0759168
-0.0734967
-0.0704133
-0.0670724
-0.0638576
-0.061163
-0.059173
-0.057957
-0.0574374
-0.0574326
-0.0578451
-0.0585613
-0.0595685
-0.0607466
-0.0619063
-0.0628661
-0.0634124
-0.0633645
-0.0626929
-0.0615866
-0.0603619
-0.059326
-0.0588375
-0.0590202
-0.0599019
-0.0613513
-0.0632188
-0.0652776
-0.0674181
-0.0693547
-0.0708376
-0.0714249
-0.0706227
-0.0679478
-0.0630117
-0.0558617
-0.0468098
-0.0366073
-0.0262085
-0.0166164
-0.00865837
-0.00274759
0.0011475
0.00349708
0.00505404
0.00667414
0.00908819
0.0126478
0.0173775
0.022907
0.0287112
0.0342378
0.0391778
0.0434434
0.0471127
0.0503861
0.053417
0.0562627
0.0588807
0.0611872
0.0631351
0.0647859
0.066116
0.0671843
0.0679714
0.0684996
0.0688165
0.0690242
0.0692965
0.069781
0.0704468
0.0711785
0.071656
0.0715538
0.0706531
0.06892
0.0666611
0.0642575
0.0620726
0.0603036
0.0588642
0.0574102
0.0556592
0.0534544
0.0508908
0.0482945
0.0459433
0.0439581
0.0422419
0.0405029
0.0384506
0.0360382
0.0334311
0.0309715
0.0290741
0.0278652
0.027255
0.0268955
0.0264023
0.0254837
0.0240697
0.0223063
0.0203162
0.0182476
0.0161148
0.0137869
0.0111503
0.00817272
0.0049817
0.0018811
-0.000792233
-0.00271466
-0.00373787
-0.00393589
-0.0036095
-0.0031841
-0.00306573
-0.00349589
-0.00445727
-0.00567758
-0.00684492
-0.00762744
-0.00782494
-0.00747408
-0.00672199
-0.00578823
-0.00489796
-0.00427319
-0.00412488
-0.00456036
-0.00559919
-0.00715086
-0.00887604
-0.0104334
-0.0115141
-0.0120458
-0.0121544
-0.0122592
-0.0128169
-0.0140991
-0.0160881
-0.0184727
-0.020609
-0.0219672
-0.0222234
-0.0213811
-0.0198019
-0.0179746
-0.0163311
-0.0149649
-0.0136122
-0.0117238
-0.00862802
-0.0038668
0.00283707
0.0112434
0.0207838
0.0305882
0.0395969
0.0468632
0.0517477
0.0541992
0.0546698
0.0542401
0.0542354
0.0557819
0.0595245
0.0654372
0.0727366
0.080182
0.0865109
0.090747
0.092585
0.0922325
0.0903589
0.0876528
0.0846733
0.081718
0.0788832
0.076351
0.0744073
0.0734214
0.0733321
0.0736193
0.0731344
0.0703695
0.0639996
0.0533979
0.0390624
0.022276
0.00501982
-0.0108726
-0.0240812
-0.034102
-0.0411326
-0.0457795
-0.0487479
-0.0506785
-0.0520766
-0.0532342
-0.0543044
-0.0552703
-0.0561196
-0.0568576
-0.057529
-0.0583037
-0.0594335
-0.0610675
-0.0630042
-0.0648353
-0.066182
-0.0668721
-0.0672845
-0.0683576
-0.0713594
-0.0772157
-0.0865608
-0.0992983
-0.115168
-0.133895
-0.155293
-0.179001
-0.203982
-0.227584
-0.245649
-0.252566
-0.241999
-0.207293
-0.142156
-0.0416936
0.0956357
0.265809
0.456744
0.647155
0.808608
0.910857
0.930146
0.857167
0.701735
0.491489
0.264787
0.0599935
-0.0946477
-0.187274
-0.222426
-0.216265
-0.189044
-0.158203
-0.134211
-0.120575
-0.115759
-0.116272
-0.118801
-0.121402
-0.123442
-0.125077
-0.12651
-0.127864
-0.129029
-0.129729
-0.129769
-0.128962
-0.127309
-0.124984
-0.122285
-0.11949
-0.116788
-0.114234
-0.111805
-0.109413
-0.10703
-0.104654
-0.102298
-0.0998496
-0.0972064
-0.0941628
-0.0906578
-0.0869166
-0.0833775
-0.080609
-0.0790431
-0.0788026
-0.0796246
-0.0809557
-0.0821735
-0.0828353
-0.0827694
-0.0821616
-0.0813725
-0.0807427
-0.0804431
-0.0804634
-0.0806249
-0.0807001
-0.0804124
-0.0796371
-0.0782955
-0.0764254
-0.0741894
-0.0718432
-0.069716
-0.0681871
-0.0675793
-0.0680049
-0.069317
-0.0711515
-0.0729231
-0.0740844
-0.0743537
-0.073655
-0.0721638
-0.0702289
-0.0681768
-0.0662634
-0.0646492
-0.0634132
-0.0626715
-0.0626014
-0.0634019
-0.0652556
-0.0682733
-0.0723675
-0.0773059
-0.0827429
-0.0880676
-0.092671
-0.0958749
-0.097062
-0.0957533
-0.0916999
-0.0850366
-0.076286
-0.0663546
-0.0564105
-0.0474983
-0.0403982
-0.0355323
-0.0326378
-0.0311183
-0.0301457
-0.0288407
-0.0265397
-0.0229192
-0.0178446
-0.0114608
-0.00419625
0.00343344
0.0108043
0.0174212
0.0231342
0.027999
0.0323735
0.0367985
0.0416534
0.0470093
0.052481
0.0574244
0.061146
0.0632002
0.0635401
0.0624954
0.060574
0.0584597
0.0565372
0.0550262
0.053976
0.053319
0.0529179
0.0527557
0.0526869
0.0525649
0.0522531
0.0514964
0.0501737
0.0482099
0.0457276
0.0429916
0.04039
0.0383609
0.0371685
0.0368754
0.0373286
0.0381912
0.0390151
0.0393015
0.0386627
0.0368257
0.0336989
0.0294355
0.0244345
0.0192176
0.0144984
0.0108396
0.0086891
0.00816766
0.00904353
0.0107768
0.012697
0.0141257
0.0145043
0.0136038
0.0114286
0.0082216
0.00443574
0.00045206
-0.00337921
-0.00680757
-0.00960958
-0.0116625
-0.0128123
-0.0129842
-0.012209
-0.0107153
-0.00889275
-0.00731201
-0.00650913
-0.00681157
-0.00836641
-0.0108477
-0.0137221
-0.0164218
-0.0184113
-0.0194662
-0.0197015
-0.0194288
-0.0189118
-0.0183522
-0.0177544
-0.0170136
-0.0159775
-0.0147728
-0.0137312
-0.0133539
-0.0141798
-0.0163732
-0.0196401
-0.0231637
-0.0259522
-0.0270607
-0.025972
-0.0228545
-0.018429
-0.0137591
-0.00968958
-0.00669163
-0.00463513
-0.00282322
-0.000440129
0.00318838
0.00834535
0.0148458
0.0220692
0.0293629
0.0362346
0.0426615
0.0488154
0.0551111
0.0617958
0.0687363
0.0754838
0.0813615
0.0857545
0.0882001
0.0886343
0.0872319
0.0842823
0.0802157
0.075533
0.0708748
0.0668274
0.0638714
0.0621195
0.0612869
0.0608016
0.0600068
0.0586019
0.0567487
0.0550331
0.0540233
0.053897
0.054018
0.0532168
0.0500719
0.0434742
0.0331724
0.0198825
0.00498507
-0.00987567
-0.0232255
-0.0341745
-0.0425037
-0.0484178
-0.0524394
-0.0551774
-0.0572151
-0.0589703
-0.0606956
-0.0623956
-0.0640461
-0.0655556
-0.0668581
-0.0680112
-0.0689617
-0.0695841
-0.0697089
-0.0689776
-0.0671201
-0.0642674
-0.0609733
-0.0585203
-0.0587819
-0.0639079
-0.0758371
-0.0957233
-0.123414
-0.157017
-0.192458
-0.223611
-0.242467
-0.239603
-0.204916
-0.129297
-0.00721911
0.160184
0.362043
0.576456
0.772209
0.914684
0.97409
0.934587
0.800149
0.594657
0.35625
0.126847
-0.0591825
-0.182902
-0.24312
-0.252968
-0.232549
-0.201463
-0.173409
-0.154404
-0.144568
-0.140868
-0.139993
-0.139778
-0.139597
-0.139629
-0.140001
-0.14057
-0.140785
-0.140233
-0.138778
-0.136677
-0.134432
-0.132554
-0.131363
-0.130768
-0.130545
-0.130286
-0.129777
-0.128743
-0.127228
-0.125221
-0.122866
-0.120296
-0.117733
-0.115401
-0.113445
-0.111846
-0.110382
-0.108723
-0.106584
-0.103864
-0.100747
-0.0975799
-0.094879
-0.0929978
-0.0920436
-0.0918817
-0.0920366
-0.0920484
-0.0915471
-0.090383
-0.0885884
-0.086473
-0.0843293
-0.0826361
-0.0815162
-0.081009
-0.0809409
-0.0809988
-0.0807332
-0.079851
-0.0780925
-0.0755438
-0.0724003
-0.0691583
-0.0662909
-0.0641719
-0.0630525
-0.0629772
-0.0637894
-0.0651904
-0.066803
-0.0681162
-0.0688491
-0.0688298
-0.0681128
-0.067082
-0.0663273
-0.0664792
-0.0679741
-0.0709238
-0.0751516
-0.0801213
-0.0851495
-0.089507
-0.0926464
-0.0941303
-0.0937314
-0.0912925
-0.086875
-0.0805964
-0.0727759
-0.0639735
-0.0549057
-0.0463621
-0.0389966
-0.0332287
-0.0289295
-0.0256639
-0.0226774
-0.0191506
-0.0145349
-0.00861564
-0.00146317
0.0066192
0.0152035
0.0240569
0.0330352
0.0420425
0.0510294
0.0597731
0.0680247
0.0754804
0.081994
0.087512
0.092085
0.0959377
0.0992225
0.10204
0.104532
0.106856
0.109005
0.111109
0.113098
0.114771
0.11584
0.115988
0.115058
0.113145
0.110574
0.107751
0.105171
0.103055
0.101463
0.100262
0.0992122
0.0981232
0.0969038
0.0956297
0.0943445
0.0931132
0.0919537
0.0906929
0.0891999
0.0873773
0.0852078
0.082671
0.0799861
0.0772513
0.0746162
0.0721462
0.0698804
0.0678449
0.0660056
0.0644247
0.0630559
0.0619637
0.061112
0.0603788
0.0596162
0.0586573
0.0573312
0.0556432
0.0535576
0.0511829
0.0486839
0.046185
0.043825
0.0416666
0.0397554
0.0381443
0.0367334
0.0354456
0.0341997
0.0329159
0.0315382
0.0300838
0.0285794
0.026997
0.0253548
0.0236571
0.0219699
0.0203722
0.0189903
0.0179652
0.0172615
0.0168105
0.0163387
0.0155614
0.0142769
0.012509
0.0104551
0.00852595
0.00713656
0.00656652
0.00680928
0.00756098
0.00846782
0.00915896
0.00937816
0.00911147
0.00847846
0.00760422
0.00674894
0.00598098
0.00538607
0.00484396
0.00422352
0.00347748
0.00260219
0.00183805
0.00170244
0.00285258
0.00596318
0.0113465
0.0189636
0.0281411
0.0378798
0.0470704
0.0547465
0.0603943
0.0640954
0.0664209
0.0682386
0.0704509
0.0737208
0.0782873
0.0839313
0.0900791
0.095807
0.100299
0.102867
0.10322
0.101471
0.0980648
0.0935977
0.0887093
0.0839715
0.0798039
0.0767532
0.0753136
0.0757959
0.0781363
0.0815708
0.0846639
0.085639
0.0828549
0.075387
0.0633478
0.0477895
0.0305736
0.013578
-0.00166972
-0.0143307
-0.0241882
-0.0315001
-0.0367317
-0.0403549
-0.0427465
-0.0442265
-0.0450449
-0.0454954
-0.0458844
-0.0464918
-0.0474464
-0.0487627
-0.050241
-0.0515232
-0.0521961
-0.0518663
-0.0504548
-0.0481871
-0.0457215
-0.0442462
-0.0452679
-0.0504341
-0.0613678
-0.0791535
-0.104022
-0.134787
-0.168515
-0.200531
-0.225138
-0.236868
-0.2317
-0.207936
-0.166214
-0.108353
-0.0354613
0.0536049
0.162508
0.2956
0.454365
0.633376
0.817392
0.981419
1.09519
1.13081
1.07185
0.92016
0.697358
0.440198
0.190735
-0.0149751
-0.155614
-0.228123
-0.245058
-0.227557
-0.19723
-0.169844
-0.152918
-0.146947
-0.148469
-0.153063
-0.157471
-0.160083
-0.160671
-0.159727
-0.157766
-0.155172
-0.152337
-0.149607
-0.14723
-0.145362
-0.143997
-0.142911
-0.141799
-0.140402
-0.138541
-0.136153
-0.13339
-0.1304
-0.12738
-0.124596
-0.122178
-0.120198
-0.118692
-0.117508
-0.116484
-0.115352
-0.11389
-0.111918
-0.109516
-0.106868
-0.104234
-0.101959
-0.100268
-0.0992107
-0.0987396
-0.0986195
-0.0984985
-0.098116
-0.0972589
-0.0958591
-0.0941023
-0.0922908
-0.0907308
-0.0897066
-0.089285
-0.0893158
-0.0896348
-0.089871
-0.0898519
-0.0895098
-0.0889231
-0.0882533
-0.0876056
-0.0871637
-0.0870243
-0.0872459
-0.0878961
-0.0890124
-0.0905232
-0.0922848
-0.0941029
-0.0958004
-0.0972936
-0.098571
-0.099749
-0.101003
-0.102404
-0.10397
-0.105573
-0.106984
-0.107935
-0.108157
-0.107286
-0.105107
-0.101362
-0.0959715
-0.0888225
-0.0799758
-0.0695944
-0.0580127
-0.0456976
-0.0331892
-0.021136
-0.010004
-9.49155e-5
0.0085725
0.0161996
0.0231891
0.0298789
0.0365162
0.0431116
0.0495971
0.0557983
0.0616635
0.0671741
0.0723647
0.0771903
0.0815026
0.0851254
0.0879359
0.0898674
0.0910957
0.0918175
0.0922795
0.092566
0.0927071
0.0926036
0.0920363
0.0909086
0.0892343
0.0871164
0.0848262
0.082672
0.0809072
0.0797241
0.079089
0.0787867
0.0784859
0.0778307
0.0765572
0.0745981
0.071994
0.0689263
0.0656937
0.0625326
0.0595619
0.0569021
0.0544791
0.0521322
0.0496467
0.0469036
0.0438567
0.0406703
0.0376789
0.0352291
0.0336028
0.0328944
0.0329024
0.0332616
0.033549
0.0334429
0.0327674
0.0315691
0.0300345
0.0284374
0.026938
0.0255664
0.0243713
0.0233134
0.0223144
0.0213182
0.0203092
0.0192548
0.0181676
0.0170844
0.0160557
0.0150954
0.0141779
0.0132171
0.0120771
0.0107202
0.00906072
0.00717346
0.00510768
0.00294391
0.000738153
-0.00146995
-0.00362735
-0.00563894
-0.00742194
-0.00893178
-0.0101442
-0.010975
-0.011504
-0.0117689
-0.0117705
-0.0115185
-0.0110309
-0.0103549
-0.0095514
-0.00871345
-0.00793796
-0.00728004
-0.00677397
-0.00635524
-0.00600602
-0.00562749
-0.00511751
-0.00448053
-0.00375929
-0.00310826
-0.00265437
-0.00249566
-0.00248886
-0.0022804
-0.00120398
0.00140091
0.00605481
0.01284
0.0214508
0.0310759
0.0406954
0.0494506
0.0568229
0.0627694
0.0676555
0.0720066
0.0764225
0.0811949
0.0863925
0.0916673
0.0965591
0.100442
0.102835
0.103475
0.102322
0.0996052
0.0956311
0.0907522
0.0853602
0.0799131
0.0748291
0.0708444
0.0687299
0.0690041
0.071566
0.0755222
0.0791321
0.0802597
0.0770604
0.0685607
0.0550515
0.0380449
0.0196513
0.00214395
-0.012827
-0.0243411
-0.0323074
-0.0371307
-0.0395025
-0.0402226
-0.0401572
-0.0400414
-0.0404782
-0.0417156
-0.0437738
-0.0463814
-0.0490904
-0.0515544
-0.053534
-0.0549087
-0.0557262
-0.0560537
-0.0559507
-0.0554085
-0.0544631
-0.0532719
-0.0521648
-0.0515577
-0.0522287
-0.0553517
-0.0622047
-0.0742454
-0.0925307
-0.117534
-0.148409
-0.182365
-0.214128
-0.236051
-0.238203
-0.209346
-0.138919
-0.0202992
0.145553
0.346726
0.559259
0.749651
0.881798
0.926431
0.870627
0.722829
0.511827
0.278953
0.0662182
-0.0952456
-0.191887
-0.228112
-0.221061
-0.192251
-0.160238
-0.136141
-0.123336
-0.119956
-0.121978
-0.12572
-0.128918
-0.130722
-0.131244
-0.130828
-0.129841
-0.128467
-0.126798
-0.124794
-0.122408
-0.119544
-0.116257
-0.112746
-0.109334
-0.106441
-0.104311
-0.102984
-0.102302
-0.101924
-0.101483
-0.10064
-0.0992444
-0.097356
-0.0951078
-0.0927266
-0.0904865
-0.0885446
-0.0869528
-0.0856669
-0.084518
-0.083312
-0.0817655
-0.0797592
-0.0771271
-0.0739581
-0.0704466
-0.0668655
-0.063643
-0.0610426
-0.0592197
-0.0581144
-0.057555
-0.0572871
-0.0571257
-0.0570461
-0.0570565
-0.0572208
-0.0575434
-0.0578915
-0.0581773
-0.0582931
-0.0582021
-0.0579846
-0.0577375
-0.0575742
-0.0575185
-0.0574655
-0.0573534
-0.0569236
-0.056135
-0.0549669
-0.0534803
-0.051938
-0.0506027
-0.049773
-0.049723
-0.0506616
-0.0526624
-0.0557633
-0.0598665
-0.0646709
-0.0696664
-0.0742411
-0.0777334
-0.079477
-0.078935
-0.0758652
-0.070304
-0.0626311
-0.0534208
-0.0433434
-0.0330821
-0.0230911
-0.0136137
-0.00470539
0.00375595
0.0119926
0.0200649
0.0279566
0.0356052
0.042778
0.0492898
0.055024
0.0599138
0.0639794
0.0673069
0.070009
0.0720622
0.0734464
0.0741355
0.0740455
0.0730805
0.071283
0.068665
0.0654206
0.0618573
0.0583394
0.0553516
0.0531526
0.051863
0.0512887
0.0510435
0.0506157
0.0496502
0.0480572
0.0459084
0.0436488
0.041769
0.0406255
0.0404242
0.0410442
0.0421088
0.042981
0.043039
0.0417674
0.0390059
0.034963
0.0302131
0.0254567
0.0213674
0.0182324
0.0159923
0.0143071
0.0126617
0.0106645
0.00812106
0.00507977
0.0017479
-0.00158928
-0.00469216
-0.00736654
-0.00945249
-0.0108986
-0.0118129
-0.0123314
-0.0127316
-0.0132419
-0.0139286
-0.0147242
-0.0154456
-0.0159304
-0.0161864
-0.0164212
-0.016947
-0.018067
-0.019879
-0.0221386
-0.0245193
-0.0265953
-0.028043
-0.028758
-0.0288034
-0.0283919
-0.0278178
-0.027418
-0.0274448
-0.0280762
-0.0292624
-0.0307584
-0.0321675
-0.0331051
-0.0332675
-0.0326573
-0.0315547
-0.0303705
-0.0295275
-0.0292988
-0.0296674
-0.0304603
-0.0314705
-0.0325036
-0.03346
-0.0343099
-0.0348696
-0.0348511
-0.0338319
-0.0313506
-0.0271557
-0.0212471
-0.0139547
-0.00579752
0.00266709
0.0110955
0.0193337
0.0274512
0.0355708
0.0438209
0.0520702
0.0600308
0.0670934
0.0726013
0.0759669
0.0769037
0.0753527
0.0716792
0.0664286
0.0603496
0.0541403
0.0484802
0.0438833
0.0408056
0.0396131
0.0402698
0.0423728
0.0448538
0.0462475
0.045062
0.0400919
0.0309397
0.0181662
0.00305829
-0.0126246
-0.0272419
-0.0394794
-0.0486208
-0.0543776
-0.0569968
-0.0570415
-0.0554314
-0.0532309
-0.0516019
-0.0513627
-0.0528898
-0.0559943
-0.0601046
-0.0643901
-0.0680552
-0.0707032
-0.0721938
-0.0727846
-0.0728945
-0.0729063
-0.0730552
-0.0731985
-0.0729848
-0.0719558
-0.0699316
-0.0672863
-0.0650351
-0.06489
-0.0688492
-0.0788045
-0.0960427
-0.1209
-0.152088
-0.186086
-0.21683
-0.235486
-0.230983
-0.191241
-0.106119
0.0289438
0.209299
0.418666
0.629557
0.807504
0.918877
0.939657
0.86282
0.701243
0.484917
0.252935
0.0431905
-0.116919
-0.215661
-0.25667
-0.254408
-0.227659
-0.193399
-0.163078
-0.141932
-0.130465
-0.126552
-0.127388
-0.130686
-0.13509
-0.139785
-0.14403
-0.147175
-0.148674
-0.148193
-0.145738
-0.141731
-0.136884
-0.131969
-0.127717
-0.12446
-0.122135
-0.120425
-0.118927
-0.117269
-0.115393
-0.113404
-0.111467
-0.109789
-0.108428
-0.107287
-0.106267
-0.105195
-0.104038
-0.102764
-0.101339
-0.0995844
-0.0973637
-0.0947303
-0.091923
-0.0895343
-0.0882473
-0.0885965
-0.0906135
-0.0938434
-0.097229
-0.0995585
-0.0998733
-0.0978025
-0.0936983
-0.0885332
-0.0833346
-0.0790334
-0.0761617
-0.0746748
-0.0742663
-0.0744896
-0.0748939
-0.0752258
-0.0753348
-0.075108
-0.0744463
-0.0733716
-0.0719598
-0.070325
-0.0686618
-0.0671853
-0.0660514
-0.0653472
-0.065157
-0.0655966
-0.066753
-0.0687739
-0.0717396
-0.0756233
-0.0801709
-0.0850676
-0.0901048
-0.0951354
-0.100154
-0.105236
-0.110225
-0.11459
-0.117377
-0.117427
-0.113629
-0.105372
-0.0927755
-0.07672
-0.0586871
-0.0403974
-0.0234442
-0.00888279
0.00282648
0.0119516
0.0191842
0.0254953
0.0317716
0.0385701
0.0459982
0.0537347
0.0610564
0.0672819
0.0719446
0.0750054
0.0768686
0.0783269
0.0801604
0.082888
0.086492
0.0904399
0.093812
0.0957857
0.0957636
0.0936691
0.089956
0.0854219
0.0808741
0.0768797
0.0737123
0.0712301
0.0692167
0.0673501
0.0655317
0.0638022
0.0623143
0.0611995
0.0605028
0.0600704
0.0597294
0.0592833
0.0586598
0.0577737
0.0566599
0.0552172
0.0532951
0.0507473
0.0474616
0.0434617
0.0389335
0.0342092
0.0296604
0.0256101
0.0222814
0.0198121
0.0181868
0.0173469
0.0171657
0.0175457
0.0181463
0.0186683
0.0186706
0.0178031
0.0158501
0.0129357
0.00940922
0.00585354
0.0028204
0.000753619
-0.000272483
-0.000446647
-0.000189588
-3.35518e-5
-0.000324016
-0.00125678
-0.0027827
-0.00464689
-0.00651845
-0.00804987
-0.00901815
-0.00931398
-0.0089091
-0.00786478
-0.00636083
-0.00464472
-0.00297899
-0.00165367
-0.000878333
-0.000677661
-0.000977676
-0.00149398
-0.00178789
-0.00145456
-3.66322e-5
0.00275241
0.00706213
0.0126791
0.019173
0.0258965
0.032225
0.0377088
0.0423953
0.0466472
0.0510562
0.0560748
0.0619091
0.0682215
0.0742699
0.0792031
0.0824675
0.0839803
0.084438
0.0849151
0.0866605
0.0904895
0.0963775
0.10321
0.108942
0.111285
0.108231
0.098863
0.0835249
0.0638974
0.0423588
0.0214801
0.00325238
-0.0111674
-0.0216184
-0.0286745
-0.0332397
-0.0362092
-0.0383328
-0.040133
-0.0418857
-0.043661
-0.0455033
-0.0473023
-0.0489739
-0.0503547
-0.0512716
-0.0516546
-0.0514719
-0.0507575
-0.0494566
-0.0475637
-0.0450687
-0.0421601
-0.0391969
-0.0368271
-0.0361322
-0.038521
-0.0456149
-0.0588165
-0.0790362
-0.106136
-0.138309
-0.171552
-0.199455
-0.213509
-0.203696
-0.159571
-0.0723751
0.0621087
0.240444
0.448913
0.662807
0.84911
0.97316
1.00761
0.940987
0.782615
0.561399
0.318353
0.0952557
-0.07655
-0.182844
-0.22722
-0.225952
-0.200259
-0.168782
-0.143312
-0.128084
-0.12206
-0.121979
-0.124598
-0.127701
-0.130431
-0.132542
-0.133888
-0.134282
-0.133604
-0.131861
-0.129279
-0.126203
-0.123065
-0.120239
-0.117995
-0.116455
-0.115584
-0.115315
-0.115415
-0.115686
-0.115806
-0.115527
-0.11464
-0.113166
-0.111207
-0.109073
-0.107132
-0.105542
-0.104324
-0.103312
-0.102121
-0.100445
-0.0981183
-0.0952636
-0.0921263
-0.089145
-0.0865857
-0.0845243
-0.0828529
-0.0813357
-0.0797973
-0.0780446
-0.0761778
-0.0743068
-0.0726545
-0.0713097
-0.0703789
-0.0698453
-0.0696963
-0.0698554
-0.0702193
-0.0706634
-0.0709747
-0.0710469
-0.0707615
-0.0700613
-0.0690385
-0.0677917
-0.0665912
-0.0656591
-0.0653594
-0.0658233
-0.0670329
-0.0688001
-0.0707884
-0.072599
-0.0739699
-0.074893
-0.0755817
-0.0763324
-0.0773721
-0.0788356
-0.080677
-0.0827364
-0.084674
-0.0863118
-0.0873901
-0.0875678
-0.0864975
-0.0838299
-0.0793163
-0.0729872
-0.0651639
-0.0563945
-0.0472483
-0.0382141
-0.0294727
-0.0210207
-0.0127721
-0.00465989
0.00329637
0.0110334
0.0185552
0.0260387
0.033861
0.0423394
0.0516182
0.0615375
0.071624
0.0812582
0.0896699
0.0964444
0.101413
0.104641
0.106408
0.10704
0.106778
0.10582
0.104254
0.102231
0.0999787
0.097718
0.0956967
0.0940058
0.0926006
0.0913094
0.0898196
0.0878633
0.085321
0.0821806
0.078615
0.0749313
0.0714972
0.068736
0.0669694
0.0663473
0.0667481
0.06785
0.0690478
0.0697597
0.0694864
0.0679512
0.065199
0.0614674
0.0572911
0.053095
0.0491683
0.0456394
0.0424208
0.0394386
0.0366342
0.0339062
0.031372
0.0290677
0.0270854
0.0254049
0.0239273
0.0225413
0.021191
0.0198958
0.0186529
0.0176038
0.0168426
0.0163606
0.0161647
0.0161322
0.0160818
0.0159126
0.0155898
0.0152187
0.014908
0.014733
0.0146248
0.014332
0.0134963
0.0118189
0.00918325
0.00597654
0.00274937
0.000169226
-0.00122023
-0.00134571
-0.000495452
0.000762343
0.00182936
0.00228986
0.00222143
0.00176113
0.00127152
0.000893381
0.000578789
8.30396e-5
-0.00077546
-0.00216429
-0.00403022
-0.00620612
-0.00845525
-0.0104658
-0.012012
-0.0129234
-0.0131417
-0.0127317
-0.011897
-0.0110636
-0.0105519
-0.0105264
-0.0108978
-0.0112507
-0.0110249
-0.00977882
-0.00741593
-0.00420908
-0.000763414
0.00242048
0.00504783
0.00741164
0.0102056
0.0142327
0.0199982
0.0274668
0.0359819
0.0445074
0.052211
0.0585156
0.0634924
0.0676691
0.0717011
0.0760595
0.0807938
0.0855275
0.0895601
0.092237
0.093053
0.0919381
0.0892697
0.0855653
0.0816289
0.0780177
0.075061
0.0727325
0.0709203
0.0694161
0.0681844
0.0674805
0.0677285
0.0692377
0.0717385
0.0743359
0.0754323
0.0733313
0.0667346
0.0552473
0.0397478
0.0219802
0.00414644
-0.0117643
-0.0245484
-0.0339122
-0.0402153
-0.0441868
-0.0466147
-0.0479917
-0.0487388
-0.0490527
-0.0491054
-0.0489798
-0.0488918
-0.0490259
-0.0494937
-0.0503116
-0.0513041
-0.0521949
-0.0527545
-0.0528291
-0.052671
-0.0530456
-0.0554076
-0.0616337
-0.073644
-0.0928387
-0.119531
-0.152288
-0.187248
-0.218057
-0.236372
-0.2327
-0.1977
-0.123522
-0.00548524
0.156183
0.354702
0.575508
0.796213
0.988327
1.12139
1.16953
1.11852
0.971208
0.749101
0.488033
0.229581
0.0106202
-0.145308
-0.232117
-0.259706
-0.247764
-0.21805
-0.187731
-0.166362
-0.156211
-0.154824
-0.158117
-0.162599
-0.166252
-0.168483
-0.169443
-0.16941
-0.1685
-0.166768
-0.164263
-0.161084
-0.157421
-0.153691
-0.150231
-0.147421
-0.145505
-0.144575
-0.144583
-0.145334
-0.146489
-0.14759
-0.148204
-0.147995
-0.146838
-0.144824
-0.142245
-0.139413
-0.136571
-0.133698
-0.130633
-0.127176
-0.123286
-0.119194
-0.115489
-0.112752
-0.111388
-0.111345
-0.112274
-0.113438
-0.114167
-0.113989
-0.112805
-0.11083
-0.108484
-0.106114
-0.103978
-0.102176
-0.100701
-0.0994895
-0.0985211
-0.0977038
-0.0969672
-0.0962293
-0.0953403
-0.0942449
-0.0929653
-0.0916714
-0.0905631
-0.0898766
-0.0897683
-0.0902408
-0.0911031
-0.0921486
-0.0930706
-0.0937149
-0.0940418
-0.0941534
-0.0941883
-0.0942438
-0.0943432
-0.0944539
-0.0945334
-0.0945341
-0.0943698
-0.0940043
-0.0932448
-0.0917889
-0.0891916
-0.0850209
-0.0789389
-0.0707418
-0.0605894
-0.0488723
-0.0362128
-0.0234306
-0.011119
0.00027418
0.0106165
0.0201455
0.0291588
0.038012
0.0468605
0.0555887
0.063952
0.0715778
0.0781835
0.0835989
0.0878468
0.0910537
0.0932879
0.0947365
0.0955229
0.0957222
0.0954424
0.0948317
0.0940011
0.0929769
0.0918427
0.0905814
0.0891695
0.0876062
0.0858346
0.0837955
0.0814703
0.0788786
0.0761683
0.0736085
0.0714592
0.0699606
0.0690669
0.0685266
0.0679677
0.0669662
0.0652785
0.0629371
0.0601621
0.0572789
0.0545377
0.0521501
0.0500706
0.0481612
0.0463629
0.0446021
0.0428817
0.0412566
0.0397123
0.0381555
0.0364415
0.0344228
0.0320411
0.0294085
0.0268192
0.024623
0.0230889
0.0222767
0.0220631
0.0221194
0.0220002
0.0213317
0.0199181
0.0176658
0.0147413
0.0114326
0.00809174
0.00496265
0.00228286
0.000125899
-0.0015519
-0.00279459
-0.00364344
-0.00410466
-0.00414793
-0.00365651
-0.00264299
-0.00114151
0.000647522
0.00240757
0.00386246
0.00464303
0.0045611
0.00353219
0.00164859
-0.000881858
-0.00375416
-0.00657876
-0.00912436
-0.0111979
-0.012769
-0.0139545
-0.0149259
-0.0158201
-0.0166447
-0.0172378
-0.0172327
-0.0161991
-0.0136912
-0.00941309
-0.00326163
0.00452731
0.0135466
0.0231437
0.0326248
0.0413691
0.0489269
0.0551859
0.060248
0.0644734
0.0681873
0.0717019
0.0751409
0.078463
0.0815127
0.0840423
0.0857741
0.086417
0.0858402
0.0839953
0.08098
0.0770157
0.0724157
0.0675611
0.0628181
0.0585923
0.05533
0.0536489
0.0539636
0.0562452
0.0597444
0.0631297
0.0645993
0.0624873
0.055793
0.0445828
0.0300149
0.0139367
-0.00166367
-0.0153355
-0.0263714
-0.0349087
-0.04159
-0.0470469
-0.0518782
-0.0562974
-0.060276
-0.063559
-0.0659216
-0.0672484
-0.0675916
-0.0670852
-0.0659394
-0.0643441
-0.0623986
-0.0602117
-0.0578602
-0.0556616
-0.0541382
-0.0541269
-0.0568315
-0.0636716
-0.0760054
-0.0948202
-0.120463
-0.152033
-0.186802
-0.21965
-0.243242
-0.248733
-0.226537
-0.168218
-0.0683495
0.0737391
0.25267
0.456638
0.667968
0.864728
1.02338
1.12213
1.14474
1.0843
0.945632
0.745622
0.510707
0.272078
0.0592399
-0.105915
-0.213253
-0.2651
-0.273432
-0.254983
-0.226197
-0.199307
-0.180687
-0.171331
-0.168999
-0.170309
-0.172438
-0.173787
-0.173924
-0.173059
-0.171626
-0.170045
-0.168584
-0.167384
-0.166483
-0.165789
-0.165096
-0.164125
-0.162594
-0.160495
-0.157948
-0.15541
-0.153283
-0.151898
-0.151345
-0.151405
-0.151665
-0.151725
-0.151353
-0.150469
-0.149062
-0.147192
-0.144832
-0.141937
-0.138605
-0.135089
-0.131854
-0.129343
-0.127926
-0.127632
-0.128088
-0.128649
-0.128665
-0.127745
-0.125915
-0.123666
-0.12168
-0.120431
-0.120218
-0.120914
-0.122083
-0.123216
-0.123801
-0.123473
-0.122066
-0.119625
-0.116333
-0.112501
-0.108507
-0.104752
-0.10164
-0.0995273
-0.098651
-0.0990768
-0.100603
-0.102899
-0.105405
-0.107561
-0.108957
-0.109537
-0.109677
-0.109951
-0.110989
-0.113101
-0.116214
-0.119751
-0.12276
-0.124268
-0.123433
-0.119807
-0.113299
-0.104291
-0.0934796
-0.0816479
-0.0696927
-0.0584897
-0.048725
-0.0407933
-0.0347566
-0.0304186
-0.0273966
-0.0250979
-0.0229135
-0.0203576
-0.0171261
-0.0130892
-0.0082518
-0.0027513
0.0032711
0.0094943
0.0157881
0.0219693
0.0278695
0.033401
0.0384797
0.0431015
0.0473063
0.0512394
0.0550931
0.0589333
0.0627929
0.0665575
0.0700727
0.0731104
0.0755153
0.0771829
0.0782077
0.0788128
0.0791429
0.0793511
0.0794256
0.0792263
0.0784476
0.0768123
0.0741551
0.0706611
0.066774
0.0631348
0.0603761
0.0588581
0.0584957
0.0587475
0.0588205
0.0579472
0.0557
0.0521572
0.0479272
0.0438026
0.0405849
0.0386989
0.0380908
0.0383753
0.0390069
0.0394514
0.0394707
0.0389107
0.0378732
0.036402
0.0346131
0.0326224
0.0305189
0.0283549
0.026067
0.0235746
0.0207347
0.0175152
0.0139825
0.0104099
0.00711247
0.00442234
0.00238829
0.000991388
-7.95795e-5
-0.00104684
-0.00207598
-0.00318437
-0.00418762
-0.0048125
-0.0048092
-0.00402273
-0.0025615
-0.000732134
0.000954811
0.00200065
0.00204335
0.00100981
-0.000902841
-0.00323799
-0.00543021
-0.00708698
-0.00796985
-0.00818971
-0.00794941
-0.00754133
-0.00707703
-0.0064953
-0.00562914
-0.00445056
-0.00306944
-0.00182503
-0.00128911
-0.00187004
-0.00376241
-0.00677903
-0.0103381
-0.013731
-0.0162784
-0.0175491
-0.0176061
-0.0167296
-0.015355
-0.0138337
-0.0121958
-0.0100967
-0.00698535
-0.0022451
0.0044213
0.0128537
0.022353
0.0319342
0.0405673
0.0475426
0.0527717
0.0568423
0.0606194
0.0650294
0.0706056
0.0771317
0.0837145
0.0890892
0.0920984
0.0922672
0.0898491
0.0857394
0.0811511
0.0769326
0.0733379
0.0700702
0.0667475
0.0633056
0.0602986
0.0587103
0.0593385
0.0621427
0.0659213
0.0685619
0.0676966
0.0616306
0.050081
0.0341745
0.0161555
-0.00155485
-0.017067
-0.0294324
-0.0385553
-0.0447924
-0.0485858
-0.0503467
-0.0503574
-0.0490064
-0.0469147
-0.0448574
-0.0436732
-0.0438267
-0.0453887
-0.0478553
-0.0504135
-0.0522271
-0.0528078
-0.0521632
-0.0507003
-0.0490868
-0.0479016
-0.0473769
-0.0474279
-0.0478016
-0.0484213
-0.049725
-0.0528776
-0.059474
-0.0711593
-0.0892243
-0.113888
-0.143787
-0.175403
-0.203055
-0.219283
-0.215385
-0.18199
-0.110793
0.00360149
0.160943
0.352985
0.561997
0.761816
0.921767
1.01306
1.01638
0.927751
0.760403
0.541947
0.307232
0.0897404
-0.0857986
-0.207236
-0.274836
-0.298059
-0.290623
-0.26638
-0.236239
-0.207521
-0.184137
-0.167209
-0.156023
-0.14904
-0.144441
-0.140832
-0.137408
-0.134057
-0.131109
-0.128947
-0.12775
-0.127194
-0.126804
-0.125894
-0.124009
-0.120896
-0.116786
-0.112214
-0.107922
-0.104498
-0.102326
-0.101354
-0.101251
-0.101386
-0.101308
-0.100732
-0.0997228
-0.0985786
-0.0976109
-0.0969581
-0.0965471
-0.0960177
-0.0950254
-0.0933442
-0.090939
-0.0881139
-0.0852756
-0.083004
-0.0815436
-0.0811253
-0.081452
-0.0822623
-0.0830744
-0.0835382
-0.0834628
-0.0828235
-0.0817023
-0.0802193
-0.0784915
-0.0765592
-0.0744488
-0.0721997
-0.0698264
-0.0673451
-0.0648599
-0.0624922
-0.0605005
-0.0591371
-0.0586758
-0.0592479
-0.060811
-0.0630413
-0.0655188
-0.0676849
-0.0691936
-0.0698228
-0.0697417
-0.0693038
-0.0691682
-0.0700271
-0.0724636
-0.0767488
-0.0827441
-0.0896966
-0.0963738
-0.101432
-0.103657
-0.102357
-0.0975706
-0.0900102
-0.0807663
-0.071036
-0.0616772
-0.0533323
-0.046292
-0.0407068
-0.0366701
-0.0342913
-0.0334931
-0.0339979
-0.0353812
-0.0370165
-0.0382532
-0.0385683
-0.0375206
-0.0348986
-0.0307693
-0.0253994
-0.0191986
-0.0127693
-0.0066713
-0.00120436
0.00358807
0.0080707
0.0128145
0.0183522
0.0250353
0.032905
0.0415342
0.0504358
0.0590828
0.0671053
0.0744268
0.0812399
0.0877398
0.0940253
0.10004
0.105544
0.11022
0.113782
0.116036
0.116898
0.116544
0.115158
0.113124
0.110859
0.10882
0.107324
0.10651
0.106189
0.106054
0.10569
0.10467
0.10281
0.100274
0.0973494
0.0944793
0.092121
0.0903986
0.0892594
0.0884476
0.0875923
0.086464
0.0849591
0.0831788
0.0812945
0.0794926
0.0778912
0.0764375
0.0750309
0.0734265
0.0715487
0.0693244
0.0666838
0.0637011
0.0605235
0.0572488
0.0540014
0.0509447
0.0481677
0.0457931
0.0438772
0.0424929
0.0415246
0.040903
0.040392
0.0398105
0.0390014
0.0378437
0.0364205
0.0347734
0.0330576
0.0313769
0.0298577
0.0285016
0.0272464
0.0260837
0.024796
0.0232111
0.0211791
0.0186953
0.0158679
0.0130409
0.0105597
0.00874114
0.00778081
0.00748886
0.00759939
0.00775636
0.0076794
0.0073864
0.00698079
0.00655053
0.00610849
0.00550481
0.00446281
0.00285535
0.000833183
-0.00128621
-0.00303017
-0.00407752
-0.00431308
-0.00401574
-0.00350042
-0.00316626
-0.00317383
-0.00348499
-0.00392685
-0.00425928
-0.00433844
-0.00407146
-0.00342923
-0.00225614
-0.000301297
0.00271791
0.00709727
0.0128123
0.0196819
0.0271924
0.0347513
0.0418704
0.0483331
0.0542654
0.0599828
0.0659036
0.0721365
0.078534
0.084525
0.0894244
0.0925209
0.0934321
0.0920928
0.0888628
0.0843692
0.0792622
0.0742395
0.0698941
0.0668153
0.0655586
0.066602
0.0699913
0.0751666
0.0807679
0.0848486
0.0854261
0.0810392
0.0712111
0.0567331
0.0393486
0.0212613
0.00455483
-0.00933831
-0.0198146
-0.0269431
-0.0313039
-0.0337055
-0.0349699
-0.0358132
-0.0368369
-0.0383187
-0.040278
-0.0424902
-0.0444804
-0.0458367
-0.0462304
-0.0455523
-0.0439376
-0.0416845
-0.0391096
-0.0365308
-0.0342331
-0.0324268
-0.031218
-0.030735
-0.0310859
-0.0324354
-0.0350856
-0.0395901
-0.0468201
-0.0578197
-0.0736227
-0.0948703
-0.121482
-0.152116
-0.183609
-0.210719
-0.226242
-0.221325
-0.18629
-0.111897
0.00813876
0.173917
0.376463
0.595737
0.80172
0.959135
1.03585
1.01215
0.888043
0.684953
0.440816
0.199562
-0.0008438
-0.137872
-0.207822
-0.223059
-0.204617
-0.173886
-0.146426
-0.129482
-0.123373
-0.124626
-0.12898
-0.133154
-0.135546
-0.135892
-0.134582
-0.132114
-0.129034
-0.125863
-0.123104
-0.121174
-0.120272
-0.120301
-0.120928
-0.12161
-0.121843
-0.121157
-0.119492
-0.116995
-0.114126
-0.1114
-0.109191
-0.107624
-0.106501
-0.105427
-0.104007
-0.102038
-0.0995702
-0.096989
-0.0946813
-0.0928755
-0.0915847
-0.0905146
-0.0893146
-0.0877392
-0.0857507
-0.0835585
-0.0815278
-0.079975
-0.0790308
-0.078666
-0.0786698
-0.0788824
-0.0790909
-0.0791637
-0.079051
-0.0787645
-0.0782413
-0.0775194
-0.0766518
-0.0756895
-0.0747002
-0.0737721
-0.0728806
-0.0718914
-0.0706505
-0.069027
-0.0668981
-0.0644192
-0.0617452
-0.0591764
-0.0571741
-0.0560709
-0.0560725
-0.0571567
-0.0590846
-0.0614478
-0.0639312
-0.0662839
-0.0685634
-0.0710487
-0.0740712
-0.0778444
-0.082382
-0.0872337
-0.0916623
-0.0948022
-0.0956955
-0.0936082
-0.0882314
-0.0797846
-0.0688904
-0.0566405
-0.0442786
-0.032887
-0.0232485
-0.0156321
-0.00975142
-0.00497256
-0.000467719
0.00457274
0.0105715
0.0176257
0.0255137
0.0337888
0.0420048
0.0497774
0.0569244
0.0634748
0.0695042
0.0750854
0.0802785
0.0851013
0.0894321
0.0932004
0.0963289
0.0987825
0.100457
0.101276
0.101221
0.100361
0.0987599
0.0967235
0.0945397
0.0925122
0.0908257
0.0894372
0.0883264
0.0873958
0.0865245
0.08565
0.0847198
0.0836509
0.0823234
0.0805867
0.0784274
0.0759366
0.0733152
0.0708524
0.0686618
0.0667335
0.0649196
0.0630062
0.0607704
0.0582301
0.0553027
0.0521019
0.0488085
0.0454925
0.0422837
0.0393138
0.0367119
0.0347272
0.033487
0.0329714
0.0330166
0.0332395
0.0332017
0.0325514
0.0311693
0.029229
0.0271016
0.0252163
0.0238858
0.0230438
0.0224757
0.0217734
0.0205469
0.0186612
0.0162862
0.0136409
0.0111816
0.00913187
0.00757664
0.00638809
0.00536812
0.00428492
0.00316076
0.00198241
0.000927621
0.000115342
-0.000535379
-0.0011712
-0.00198194
-0.00318694
-0.00484045
-0.0067795
-0.00872792
-0.0103535
-0.011343
-0.011579
-0.0110937
-0.0100408
-0.00866537
-0.00725793
-0.00607351
-0.00519195
-0.00466145
-0.00446898
-0.00458382
-0.00496626
-0.00558803
-0.00640119
-0.00751091
-0.00881491
-0.0102914
-0.0117859
-0.0130244
-0.0137173
-0.0136369
-0.0125083
-0.0101843
-0.00657909
-0.00166283
0.0045005
0.0116217
0.0194001
0.0274568
0.0354181
0.0431073
0.0505684
0.0579976
0.0655919
0.0733495
0.0810786
0.0882092
0.0940719
0.0980492
0.0997583
0.0991731
0.0965629
0.0924231
0.087266
0.0816328
0.0760356
0.0710609
0.0673613
0.0656752
0.0665022
0.0696803
0.0742289
0.0784403
0.0802253
0.0777607
0.0700594
0.0572934
0.0407837
0.0225934
0.00492795
-0.0103698
-0.02222
-0.0303456
-0.0351207
-0.0373975
-0.0381736
-0.0382337
-0.03824
-0.0384363
-0.0387953
-0.0392177
-0.0396105
-0.0400246
-0.0405036
-0.0411467
-0.0420335
-0.0430856
-0.0441562
-0.0449898
-0.0453722
-0.0452259
-0.0446596
-0.0439333
-0.0437333
-0.0451517
-0.0497342
-0.0591658
-0.0749984
-0.0980019
-0.127667
-0.161582
-0.194944
-0.220844
-0.230693
-0.214877
-0.163952
-0.0703214
0.0691366
0.250221
0.458925
0.670988
0.854335
0.975445
1.0078
0.940353
0.782311
0.562058
0.319932
0.0971589
-0.0750611
-0.182367
-0.227906
-0.227762
-0.203093
-0.172773
-0.148685
-0.134971
-0.130303
-0.131045
-0.133602
-0.135821
-0.136983
-0.137312
-0.137194
-0.136812
-0.136085
-0.134817
-0.132823
-0.130158
-0.126951
-0.1236
-0.120486
-0.11799
-0.116195
-0.114989
-0.114045
-0.112903
-0.111296
-0.109088
-0.10638
-0.103398
-0.100378
-0.0974908
-0.0947988
-0.0922624
-0.0898241
-0.0875085
-0.0854471
-0.0838126
-0.0827735
-0.0823834
-0.082453
-0.0826519
-0.0825852
-0.0819186
-0.0805337
-0.0785681
-0.0764325
-0.0744541
-0.0729369
-0.0719105
-0.0711579
-0.0703978
-0.0693326
-0.067897
-0.0662627
-0.064673
-0.0634483
-0.0626434
-0.0622173
-0.0620026
-0.0617821
-0.0614827
-0.061177
-0.0609686
-0.0609157
-0.0609882
-0.0610626
-0.0610655
-0.060982
-0.0609312
-0.0611466
-0.0618428
-0.0630917
-0.0648694
-0.0670546
-0.0695312
-0.0721816
-0.0749772
-0.077845
-0.080674
-0.0831937
-0.08508
-0.0858484
-0.0851712
-0.0826845
-0.078143
-0.0714577
-0.0627227
-0.0521684
-0.0402827
-0.0277577
-0.0153159
-0.00365501
0.00676464
0.0158789
0.0239703
0.0314317
0.0387548
0.0462464
0.0540139
0.061843
0.0693606
0.0760378
0.0813601
0.084824
0.0862609
0.0857376
0.0837211
0.0809162
0.0781806
0.0762208
0.0754953
0.0760343
0.0775426
0.0795596
0.0816578
0.0834542
0.084749
0.0854775
0.0856477
0.085232
0.0841268
0.0823092
0.0797894
0.0767029
0.073206
0.0695889
0.0660727
0.0627771
0.0597135
0.0568577
0.0540587
0.0512953
0.0485188
0.0458108
0.0432717
0.041018
0.0390629
0.03741
0.0361036
0.0351414
0.0345528
0.0343286
0.034394
0.0345593
0.0345343
0.0340795
0.0329657
0.0310747
0.028383
0.0249814
0.0210336
0.0168952
0.0129665
0.0096402
0.00717557
0.00555982
0.00456357
0.00372331
0.00264305
0.00106729
-0.00103061
-0.0034698
-0.00591954
-0.00807944
-0.00971187
-0.0106872
-0.0109743
-0.0104605
-0.00934463
-0.0079168
-0.00664505
-0.00608846
-0.00656234
-0.00810267
-0.0103564
-0.0127925
-0.0148088
-0.0161246
-0.0168546
-0.0174508
-0.0184234
-0.0200781
-0.0222696
-0.0245063
-0.0260764
-0.0265801
-0.0259996
-0.0248278
-0.0237653
-0.0234794
-0.0242292
-0.0257716
-0.0274519
-0.0285789
-0.0286172
-0.0275137
-0.0256005
-0.0233463
-0.0211697
-0.0190793
-0.0167085
-0.0133481
-0.00843676
-0.00174531
0.00640331
0.015262
0.0239605
0.0319221
0.0389213
0.0453771
0.0517464
0.0584781
0.0654794
0.0721949
0.0776268
0.0808806
0.0813577
0.0792235
0.0752385
0.0706219
0.0666395
0.0642339
0.0637053
0.0646231
0.0660564
0.0669382
0.0665979
0.0649135
0.0626209
0.0608123
0.0605305
0.0621123
0.0647947
0.0668288
0.0661756
0.0608915
0.0501822
0.0345266
0.0157329
-0.00373964
-0.0213183
-0.0350954
-0.0440769
-0.0484195
-0.0491076
-0.0477669
-0.0460464
-0.0453085
-0.0463184
-0.0490517
-0.0528442
-0.0567296
-0.0598378
-0.0615532
-0.0617925
-0.0607531
-0.0589509
-0.0569505
-0.0551552
-0.0540082
-0.0542486
-0.0570246
-0.0638684
-0.0764818
-0.0963899
-0.12424
-0.158926
-0.196785
-0.231412
-0.253941
-0.254061
-0.221233
-0.146807
-0.0260787
0.139325
0.339815
0.557077
0.765159
0.933812
1.03411
1.0453
0.96104
0.792573
0.567355
0.322723
0.0965294
-0.0819619
-0.198233
-0.253694
-0.262047
-0.242786
-0.214149
-0.188661
-0.171816
-0.163544
-0.160968
-0.16082
-0.161037
-0.160848
-0.160488
-0.160197
-0.160059
-0.159925
-0.159553
-0.158873
-0.15788
-0.156723
-0.15563
-0.154607
-0.153473
-0.152035
-0.15001
-0.147361
-0.144169
-0.14077
-0.13765
-0.135262
-0.133907
-0.133564
-0.133929
-0.134416
-0.134407
-0.133456
-0.131403
-0.128505
-0.125297
-0.122316
-0.119963
-0.118357
-0.117359
-0.116619
-0.115982
-0.115317
-0.114643
-0.113988
-0.113331
-0.112548
-0.111387
-0.109628
-0.107141
-0.10398
-0.100349
-0.0965706
-0.0930645
-0.0902279
-0.0884082
-0.087862
-0.0886748
-0.0906225
-0.0933418
-0.0962891
-0.0987769
-0.100444
-0.101176
-0.101126
-0.100641
-0.100203
-0.100101
-0.100519
-0.101427
-0.102733
-0.104347
-0.106166
-0.108226
-0.110556
-0.113245
-0.116215
-0.119343
-0.122312
-0.124647
-0.125854
-0.125407
-0.122942
-0.118147
-0.11094
-0.101332
-0.0894942
-0.075903
-0.0612088
-0.0462551
-0.031887
-0.0187717
-0.0072143
0.00281888
0.0116777
0.0198101
0.0276128
0.0353024
0.0429131
0.0502894
0.0571528
0.0631158
0.0678881
0.0712068
0.0730663
0.0737267
0.0736901
0.0735741
0.0738593
0.074746
0.0760352
0.0772598
0.077829
0.0772776
0.0755699
0.0730361
0.07037
0.0683054
0.0672848
0.0674269
0.0683211
0.0693951
0.0700446
0.0699255
0.0689782
0.0674097
0.0654731
0.0633444
0.0608539
0.057792
0.0539789
0.0495237
0.0448655
0.0406585
0.0375628
0.0360775
0.0362351
0.0376858
0.0397834
0.0417656
0.0428967
0.0427221
0.041057
0.0380838
0.0343039
0.030204
0.0263254
0.0229728
0.0202601
0.0181141
0.016397
0.0150473
0.0140106
0.0133223
0.0129431
0.012716
0.0125154
0.0121062
0.0113271
0.0101585
0.00871523
0.00708567
0.00533934
0.00352989
0.00157489
-0.000679186
-0.00326512
-0.00606431
-0.00869315
-0.0106764
-0.0115693
-0.0110354
-0.0092597
-0.00666879
-0.00397352
-0.00182947
-0.000642149
-0.000508847
-0.00114598
-0.00214669
-0.00308005
-0.00359132
-0.00373193
-0.00365914
-0.00366252
-0.00396027
-0.00446437
-0.00485727
-0.00442273
-0.00254278
0.00121039
0.00674958
0.0134417
0.02031
0.0263473
0.0309208
0.0339591
0.0358926
0.0375897
0.0399327
0.0435446
0.048698
0.0552432
0.0626707
0.0702054
0.0769552
0.0820407
0.0847978
0.0850045
0.082969
0.0795985
0.0759817
0.0730522
0.0712231
0.0702033
0.0692469
0.0675202
0.0647536
0.0612221
0.0576974
0.0548891
0.0529058
0.0510756
0.048026
0.0423537
0.0331993
0.0207955
0.00639448
-0.00812384
-0.0209234
-0.0306033
-0.0367148
-0.0395853
-0.0401942
-0.0397174
-0.039222
-0.0395703
-0.0410868
-0.0437367
-0.047086
-0.0504798
-0.0532858
-0.0550249
-0.0555166
-0.0547517
-0.0530286
-0.0507921
-0.0485902
-0.0470247
-0.046845
-0.0488042
-0.0536562
-0.0620148
-0.0745341
-0.0917658
-0.113945
-0.140822
-0.170554
-0.199149
-0.219757
-0.222508
-0.195414
-0.126505
-0.00790271
0.16014
0.365377
0.582386
0.775867
0.908295
0.950134
0.889192
0.735729
0.520311
0.285383
0.0727938
-0.0871793
-0.182274
-0.217994
-0.211783
-0.184814
-0.154817
-0.132188
-0.11994
-0.116196
-0.117263
-0.119799
-0.121758
-0.122549
-0.122352
-0.121389
-0.119927
-0.118128
-0.11603
-0.113738
-0.111346
-0.109054
-0.10706
-0.105555
-0.104587
-0.104234
-0.104155
-0.104013
-0.103446
-0.102212
-0.100348
-0.0980984
-0.0958077
-0.0938064
-0.0921897
-0.0909437
-0.0898956
-0.0888475
-0.0878415
-0.0868941
-0.0861321
-0.085595
-0.0851697
-0.0846574
-0.0838439
-0.0826493
-0.0811143
-0.0794517
-0.0778463
-0.0764677
-0.075305
-0.0740818
-0.0726591
-0.0707818
-0.0684109
-0.0657258
-0.0630039
-0.0606111
-0.0588531
-0.0579322
-0.0578999
-0.0586558
-0.060005
-0.0616622
-0.0632972
-0.0646585
-0.0656205
-0.0661471
-0.0664686
-0.0668748
-0.0677447
-0.0692847
-0.0716853
-0.0748551
-0.0785739
-0.0825068
-0.0863204
-0.0897281
-0.0924865
-0.0946367
-0.0963261
-0.0977572
-0.0992892
-0.101051
-0.10291
-0.104341
-0.104449
-0.102112
-0.0962347
-0.0861273
-0.0717012
-0.0535587
-0.0328041
-0.0110898
0.0100443
0.0292107
0.0455334
0.0586862
0.0689421
0.0769867
0.0835804
0.0894901
0.0951895
0.100823
0.106284
0.111429
0.116052
0.120032
0.123366
0.125912
0.127555
0.128067
0.127262
0.125088
0.121806
0.117812
0.113706
0.110088
0.10727
0.105418
0.104371
0.103847
0.103458
0.102933
0.102076
0.10077
0.0990318
0.0969282
0.0946737
0.0925214
0.090713
0.0894915
0.088901
0.088834
0.0889355
0.0888635
0.0881644
0.0865979
0.0841269
0.0809556
0.0773764
0.0738068
0.0705261
0.0676121
0.0650394
0.0625828
0.0600013
0.0571347
0.0539794
0.0505961
0.0471007
0.0436238
0.0403238
0.0372909
0.0346243
0.0324469
0.0308186
0.0296851
0.028974
0.0284692
0.0279273
0.0271087
0.0259282
0.0243334
0.0224945
0.0206482
0.0191064
0.0180649
0.0176103
0.0176829
0.0180572
0.0184755
0.0186711
0.0184769
0.0178487
0.0168251
0.0155157
0.0140553
0.012492
0.0109089
0.00942635
0.0081232
0.00722455
0.00678845
0.00685368
0.00729934
0.00783613
0.00806654
0.00764004
0.00639787
0.0043861
0.00195946
-0.000439493
-0.00222242
-0.00296543
-0.00237982
-0.000457539
0.00266167
0.00681506
0.0118533
0.0176611
0.0242867
0.0316062
0.039381
0.0472022
0.0546212
0.0612475
0.0670072
0.0720504
0.0768808
0.081959
0.0874165
0.0930843
0.098497
0.10289
0.105636
0.106366
0.105108
0.102204
0.098084
0.0932176
0.0878602
0.0821789
0.0763564
0.0707095
0.0658228
0.0625205
0.0613497
0.0624528
0.0651172
0.0678694
0.0688096
0.06615
0.0588374
0.0468814
0.0313671
0.0141428
-0.00261206
-0.0170861
-0.0281948
-0.0356192
-0.0397471
-0.0413714
-0.0415105
-0.0410926
-0.0408189
-0.0411584
-0.0422584
-0.0441003
-0.0465376
-0.0493962
-0.0524008
-0.0552838
-0.057704
-0.0594252
-0.0604349
-0.0610063
-0.0617698
-0.0637289
-0.0682229
-0.0765842
-0.0901451
-0.109797
-0.13563
-0.166529
-0.199787
-0.230915
-0.25408
-0.262831
-0.250846
-0.212291
-0.141794
-0.0348798
0.110577
0.291714
0.497675
0.707691
0.891833
1.01653
1.05318
0.987721
0.827124
0.59919
0.345488
0.109762
-0.0740736
-0.189879
-0.240299
-0.242078
-0.217694
-0.187195
-0.163216
-0.150226
-0.14673
-0.148727
-0.152331
-0.155074
-0.156112
-0.155726
-0.154523
-0.153051
-0.151673
-0.150596
-0.149796
-0.149216
-0.148684
-0.147956
-0.146883
-0.14529
-0.143045
-0.140153
-0.136667
-0.13274
-0.128734
-0.124952
-0.121684
-0.119101
-0.117204
-0.115895
-0.115019
-0.114338
-0.113639
-0.112707
-0.111349
-0.109436
-0.107047
-0.104389
-0.101747
-0.0995124
-0.0978793
-0.0969121
-0.0964549
-0.096146
-0.0956577
-0.0947785
-0.0935388
-0.092099
-0.0907086
-0.0896196
-0.0888324
-0.0882541
-0.0877612
-0.0870573
-0.0860754
-0.0846872
-0.0828452
-0.0806138
-0.0781382
-0.0756895
-0.0736473
-0.0723407
-0.0720232
-0.0727296
-0.0743022
-0.0764925
-0.0790927
-0.081835
-0.0845487
-0.087028
-0.0890233
-0.0903518
-0.0909301
-0.0908923
-0.0906491
-0.0905964
-0.0911115
-0.0922988
-0.0939371
-0.0956304
-0.0966485
-0.0962735
-0.0937695
-0.0885466
-0.0802739
-0.068977
-0.0552338
-0.0399921
-0.0244983
-0.00989406
0.0029475
0.0137161
0.0225948
0.0300158
0.036553
0.0426748
0.0485612
0.054373
0.0601666
0.0658929
0.0715375
0.0770381
0.082304
0.0871868
0.091609
0.0954924
0.0987799
0.101362
0.10314
0.104098
0.104191
0.103529
0.102392
0.101046
0.0997573
0.0986908
0.0977747
0.0969027
0.0958092
0.0943461
0.0924132
0.0899835
0.08719
0.0841831
0.0811039
0.0780833
0.0752549
0.0725995
0.0701311
0.0677152
0.0651927
0.0624048
0.0592432
0.0558658
0.0525288
0.0494747
0.0470567
0.0453303
0.0441527
0.043239
0.0422846
0.0409744
0.0392402
0.0370799
0.0346431
0.0320792
0.0294981
0.0269618
0.0244869
0.0220471
0.0195517
0.0169826
0.0142938
0.0115766
0.008948
0.0065264
0.00449133
0.00295775
0.00199165
0.00155139
0.0015837
0.00202874
0.00266541
0.00338583
0.00397347
0.00419542
0.00383668
0.00281764
0.00113842
-0.000961752
-0.00315205
-0.00514205
-0.00662906
-0.00755988
-0.00799917
-0.00810376
-0.00797375
-0.00772823
-0.00741441
-0.00704943
-0.00677035
-0.00663726
-0.00680706
-0.00729315
-0.00807698
-0.00900124
-0.00991892
-0.0107206
-0.0112676
-0.0116402
-0.0118562
-0.0119551
-0.011983
-0.0118372
-0.0113142
-0.010179
-0.00807093
-0.00465849
0.00019982
0.00646772
0.0138441
0.0216189
0.029046
0.0354866
0.0406703
0.0448604
0.0487265
0.0530643
0.0584944
0.0650339
0.0720782
0.0785809
0.0834935
0.0860305
0.0860253
0.0838572
0.0802023
0.0758171
0.0714416
0.0675914
0.0647694
0.063523
0.0642205
0.0669757
0.071211
0.0756374
0.0784337
0.0778513
0.0725795
0.0624526
0.0483236
0.0319158
0.0152868
0.000156306
-0.0124105
-0.0220783
-0.0291124
-0.0340772
-0.037609
-0.0401271
-0.0418715
-0.0429607
-0.0433165
-0.0429399
-0.0419524
-0.0406427
-0.0393313
-0.0384141
-0.0380878
-0.0384414
-0.0393486
-0.0405535
-0.0417644
-0.0427011
-0.0430738
-0.0428103
-0.0419611
-0.0409599
-0.0408698
-0.0431612
-0.0497188
-0.0624068
-0.082327
-0.109566
-0.142498
-0.177373
-0.208323
-0.227542
-0.225893
-0.193351
-0.120752
-0.00196402
0.162863
0.364263
0.581672
0.784654
0.938032
1.01027
0.98279
0.856679
0.654089
0.41294
0.176587
-0.0181411
-0.149779
-0.215432
-0.227701
-0.207446
-0.175744
-0.147745
-0.130488
-0.124223
-0.12549
-0.130043
-0.134724
-0.138046
-0.1398
-0.140374
-0.140165
-0.13948
-0.138579
-0.137611
-0.136598
-0.135438
-0.133903
-0.131734
-0.128777
-0.125102
-0.121088
-0.117292
-0.114207
-0.112101
-0.110888
-0.110142
-0.109395
-0.108256
-0.106671
-0.104872
-0.103308
-0.102245
-0.101601
-0.101153
-0.100477
-0.0992398
-0.0973719
-0.0950746
-0.092627
-0.0904063
-0.088572
-0.0871093
-0.0858818
-0.0846838
-0.0833409
-0.0817994
-0.0800639
-0.0782222
-0.0763823
-0.0746359
-0.073053
-0.071613
-0.070256
-0.0689651
-0.067744
-0.0667312
-0.0660941
-0.0659652
-0.0664313
-0.0673715
-0.0685458
-0.0695991
-0.0702882
-0.0705481
-0.0704693
-0.0701956
-0.069888
-0.0696174
-0.0693713
-0.0691213
-0.0689317
-0.0690727
-0.0698277
-0.0714276
-0.0738908
-0.0769664
-0.0801417
-0.0829424
-0.0849213
-0.0857381
-0.085176
-0.082949
-0.078703
-0.0721671
-0.0632405
-0.0522502
-0.0400413
-0.0278601
-0.0169876
-0.00824801
-0.00183571
0.00289048
0.00717114
0.0123063
0.0193015
0.0284676
0.0393099
0.0508578
0.0618857
0.0713598
0.0786572
0.0836106
0.0865164
0.0879135
0.0884423
0.0886269
0.0888952
0.089381
0.0900687
0.0907369
0.0912342
0.0913677
0.0911033
0.09035
0.0890971
0.0872678
0.0848416
0.081792
0.0782098
0.0743962
0.070764
0.0678039
0.065877
0.0651453
0.0654651
0.0664568
0.0676423
0.0685994
0.0689035
0.0683378
0.0667911
0.0643175
0.061013
0.0571189
0.0528823
0.0487184
0.0449083
0.0416795
0.0389583
0.0365927
0.0342219
0.0314722
0.0280266
0.0237929
0.0188767
0.0137186
0.00889989
0.0050959
0.00284381
0.00234044
0.00336657
0.00531457
0.00744367
0.00907469
0.00980487
0.00970273
0.00904885
0.00815317
0.00727108
0.0062217
0.00472469
0.00240528
-0.000886591
-0.0049147
-0.00919442
-0.0132222
-0.0166219
-0.0192723
-0.021318
-0.0229637
-0.0243947
-0.0256219
-0.0264658
-0.0267179
-0.0262851
-0.0251179
-0.0233748
-0.0212946
-0.019191
-0.0174512
-0.0161983
-0.0155356
-0.0153043
-0.0152428
-0.0151552
-0.0149857
-0.014912
-0.0152008
-0.0161178
-0.0178656
-0.0202157
-0.0226761
-0.0245662
-0.0251974
-0.023974
-0.0206748
-0.0153321
-0.00832684
-0.00032156
0.00787096
0.0155459
0.0221977
0.0277069
0.0323243
0.0365069
0.0410024
0.0463432
0.0528522
0.0602702
0.0679434
0.0747979
0.0797403
0.0818317
0.0806277
0.0763563
0.0698719
0.0624315
0.0553782
0.0499105
0.0469003
0.0466778
0.0491595
0.0536059
0.0587646
0.0630345
0.0646576
0.0621971
0.0548013
0.0425059
0.026347
0.00818087
-0.00984541
-0.0257627
-0.0381976
-0.0465358
-0.0509525
-0.0523075
-0.0518388
-0.0507106
-0.049854
-0.0497398
-0.0502084
-0.0508895
-0.0512622
-0.0509762
-0.0500027
-0.048595
-0.0471908
-0.0461737
-0.0457467
-0.0459049
-0.0464046
-0.0469578
-0.0473339
-0.0473225
-0.046968
-0.0465976
-0.0471119
-0.0498446
-0.0566064
-0.0691784
-0.0889928
-0.116293
-0.149395
-0.18428
-0.214448
-0.231253
-0.224901
-0.185275
-0.104081
0.0225983
0.191541
0.390083
0.595341
0.776738
0.901813
0.944256
0.891973
0.75183
0.549044
0.320777
0.106101
-0.0643343
-0.174975
-0.226663
-0.232753
-0.212259
-0.183097
-0.15747
-0.140819
-0.133275
-0.132155
-0.134234
-0.13687
-0.138597
-0.138797
-0.137352
-0.134553
-0.131037
-0.127669
-0.125248
-0.124267
-0.124633
-0.12586
-0.127239
-0.128092
-0.128039
-0.12709
-0.125605
-0.123923
-0.122364
-0.121024
-0.119873
-0.118704
-0.117435
-0.115974
-0.114338
-0.112616
-0.110893
-0.109231
-0.107648
-0.106131
-0.104631
-0.103089
-0.10149
-0.0998022
-0.0980299
-0.0961634
-0.0943097
-0.0924625
-0.0906401
-0.0888028
-0.0869605
-0.0851666
-0.0834877
-0.0821622
-0.0813953
-0.0813362
-0.081955
-0.0830045
-0.0840673
-0.0847865
-0.0849003
-0.0843398
-0.0831718
-0.0815362
-0.0795915
-0.0775079
-0.0754863
-0.0738571
-0.0729568
-0.0730864
-0.0742931
-0.076416
-0.078972
-0.0814192
-0.0833454
-0.0846958
-0.0856836
-0.0866813
-0.0880316
-0.0898632
-0.0920248
-0.0942103
-0.0960725
-0.0974101
-0.0980509
-0.0977979
-0.096452
-0.0936557
-0.0891354
-0.0828693
-0.0752803
-0.0671171
-0.0594968
-0.0532733
-0.0488965
-0.0461422
-0.0442651
-0.0421766
-0.0388536
-0.0337395
-0.026875
-0.0187648
-0.0101398
-0.00163867
0.00659836
0.0146933
0.0231023
0.0321796
0.0419693
0.0521516
0.0619024
0.0702912
0.0766194
0.0805082
0.0820857
0.0820172
0.0812532
0.0807111
0.0811729
0.0830703
0.0863329
0.0904989
0.0948251
0.0984617
0.10072
0.101161
0.0997845
0.096944
0.0932107
0.0892493
0.085422
0.0819624
0.0788061
0.0758852
0.0731798
0.0707193
0.0686617
0.0670618
0.0657571
0.0645056
0.0629902
0.0609826
0.0585898
0.056068
0.0539821
0.0527723
0.0526741
0.0535036
0.054721
0.0554989
0.0549677
0.0525999
0.0482972
0.0425503
0.0363137
0.0307004
0.0265583
0.0243286
0.0237795
0.0241861
0.0246674
0.0245201
0.023337
0.021143
0.0183348
0.0152975
0.01239
0.00976774
0.0073953
0.00531597
0.00358087
0.00227451
0.00149834
0.0012681
0.00134274
0.00142092
0.00126342
0.000606408
-0.000587842
-0.00217291
-0.00397531
-0.00580291
-0.00750215
-0.0090422
-0.0104412
-0.0115932
-0.0124372
-0.012903
-0.0129488
-0.0126222
-0.012175
-0.0118747
-0.0120041
-0.0126862
-0.0138497
-0.0153092
-0.0168207
-0.0182605
-0.0196092
-0.0208414
-0.0219358
-0.0227239
-0.0230851
-0.0228291
-0.021924
-0.0204436
-0.0183804
-0.0156955
-0.0121536
-0.00752936
-0.00164079
0.00530497
0.0128255
0.0202664
0.0270992
0.0330666
0.0383819
0.0434497
0.0487008
0.0542257
0.0596944
0.0644799
0.0678794
0.069516
0.0693921
0.0678942
0.0655947
0.0630027
0.0604199
0.0579596
0.0558036
0.0542423
0.0537325
0.0545829
0.0566856
0.0592394
0.0608177
0.059694
0.0545372
0.0447491
0.0308511
0.0143101
-0.00290642
-0.0189582
-0.0325289
-0.0430205
-0.05035
-0.0548446
-0.0569483
-0.057211
-0.0561453
-0.0543963
-0.052519
-0.0509949
-0.0500756
-0.0497181
-0.0496848
-0.0496316
-0.0493577
-0.048727
-0.0477222
-0.0463438
-0.0445972
-0.0424972
-0.0403348
-0.0385906
-0.0380346
-0.0395719
-0.0441727
-0.0525837
-0.0653645
-0.0827636
-0.104805
-0.130922
-0.159535
-0.187521
-0.209947
-0.220186
-0.210203
-0.171243
-0.0951475
0.0232385
0.183307
0.375843
0.581464
0.771638
0.913602
0.978179
0.948457
0.826095
0.632462
0.403332
0.179192
-0.0058502
-0.132074
-0.196828
-0.211566
-0.195169
-0.166574
-0.13956
-0.120909
-0.111512
-0.109087
-0.110465
-0.113081
-0.115584
-0.117508
-0.118686
-0.11896
-0.118218
-0.116463
-0.113813
-0.110655
-0.107458
-0.104632
-0.102398
-0.100763
-0.0994679
-0.0982289
-0.0967511
-0.0949557
-0.0930324
-0.0912715
-0.0899727
-0.0893024
-0.0890424
-0.0888602
-0.0883493
-0.0871544
-0.0852136
-0.0827358
-0.0800504
-0.0775102
-0.0753933
-0.0737757
-0.0726821
-0.0720133
-0.0717098
-0.0717161
-0.0719884
-0.0725564
-0.0734555
-0.0747149
-0.0762275
-0.0779036
-0.0794574
-0.0805482
-0.0808434
-0.0802506
-0.0788027
-0.0767687
-0.0745529
-0.0724344
-0.0705797
-0.0689985
-0.0675305
-0.0659683
-0.0642612
-0.0624909
-0.0608642
-0.0596877
-0.0590778
-0.0590752
-0.0595642
-0.0603901
-0.0614619
-0.0627607
-0.0643806
-0.0663816
-0.0689155
-0.0718905
-0.0751799
-0.0786882
-0.0822862
-0.0858557
-0.0893253
-0.0924297
-0.094782
-0.0958569
-0.0951091
-0.0920672
-0.0865705
-0.0789373
-0.0698423
-0.0602239
-0.0510812
-0.0431095
-0.0366936
-0.0317586
-0.0279242
-0.0246929
-0.0215188
-0.0179885
-0.0138205
-0.0087597
-0.00257248
0.00486797
0.0135635
0.0233611
0.0337721
0.0442307
0.0541376
0.0630793
0.0709175
0.0777594
0.0838799
0.0895639
0.0949499
0.0999598
0.104509
0.108439
0.111705
0.114298
0.116266
0.117529
0.118049
0.117779
0.116744
0.115098
0.113144
0.111207
0.10948
0.108044
0.106762
0.105382
0.103655
0.101399
0.0986513
0.0955552
0.0922938
0.0891039
0.0862021
0.0837253
0.0816997
0.0801372
0.0789042
0.0778294
0.0766596
0.0751663
0.0732319
0.0709956
0.0687163
0.0666742
0.0651409
0.0641143
0.0633775
0.0624585
0.0608849
0.0583825
0.0548799
0.0505855
0.0458758
0.0411871
0.0368453
0.033107
0.0301572
0.0280325
0.0267334
0.0260787
0.025849
0.0256616
0.0251899
0.0241214
0.0224447
0.0202898
0.018019
0.0159623
0.0143364
0.0132301
0.0125264
0.0120136
0.0115402
0.0109934
0.0103683
0.00963401
0.00882552
0.00788917
0.00672683
0.00524927
0.00339575
0.00125279
-0.000975241
-0.00300607
-0.00464657
-0.00578012
-0.00650173
-0.00691711
-0.00721878
-0.00746624
-0.00769672
-0.00777823
-0.00764439
-0.00726611
-0.00674734
-0.00625911
-0.00605039
-0.00619256
-0.00669073
-0.00740274
-0.00807057
-0.00841791
-0.00827888
-0.00755142
-0.00628165
-0.00449308
-0.00216267
0.000896828
0.0049171
0.0100627
0.0163332
0.0234268
0.0308855
0.0380724
0.0445566
0.0501105
0.0547628
0.0587198
0.0623825
0.0661461
0.0702218
0.0747444
0.0796362
0.0845992
0.0892491
0.0930684
0.0955138
0.0961972
0.0950927
0.092392
0.0886124
0.0842576
0.0798889
0.0757785
0.0721155
0.0690143
0.0667474
0.0657256
0.0661921
0.0681533
0.0708348
0.0728827
0.0726621
0.0688164
0.0606581
0.0484857
0.0334636
0.0171738
0.00121097
-0.0132256
-0.0254472
-0.0351872
-0.0424646
-0.0474507
-0.0504633
-0.051907
-0.052264
-0.0520696
-0.0517016
-0.0514297
-0.0514069
-0.0516119
-0.0520315
-0.0526145
-0.0532565
-0.0538285
-0.054171
-0.054114
-0.0535268
-0.0524634
-0.0512278
-0.0502943
-0.0501807
-0.0516179
-0.0554758
-0.0627374
-0.0745555
-0.0919243
-0.115297
-0.14404
-0.175816
-0.20593
-0.227635
-0.232569
-0.211688
-0.15618
-0.0592512
0.0817824
0.26299
0.471491
0.684678
0.871924
1.0002
1.04205
0.984089
0.832664
0.614008
0.367667
0.135873
-0.0478385
-0.166394
-0.220979
-0.226732
-0.205084
-0.17586
-0.15201
-0.138418
-0.134066
-0.135156
-0.137863
-0.139855
-0.14044
-0.139899
-0.138725
-0.137253
-0.135613
-0.133883
-0.132179
-0.130696
-0.129608
-0.128957
-0.128736
-0.128851
-0.12906
-0.129214
-0.129189
-0.12886
-0.128155
-0.126984
-0.125368
-0.123395
-0.121238
-0.118994
-0.116746
-0.114532
-0.112319
-0.110064
-0.107751
-0.105457
-0.103285
-0.101321
-0.0995236
-0.0978146
-0.0960794
-0.0941837
-0.0921136
-0.090009
-0.0879803
-0.0862442
-0.084979
-0.0842639
-0.0840571
-0.084247
-0.0845921
-0.085008
-0.0854719
-0.0860039
-0.0866383
-0.0873495
-0.087996
-0.0883592
-0.0882286
-0.087428
-0.0860163
-0.0841559
-0.0820853
-0.0800308
-0.0781353
-0.0764257
-0.074799
-0.0731791
-0.0715534
-0.0700322
-0.0687864
-0.0680707
-0.068098
-0.0690574
-0.0710349
-0.0740193
-0.0778636
-0.0822859
-0.086823
-0.0909802
-0.0941041
-0.0956029
-0.0949518
-0.0917908
-0.0860256
-0.0778555
-0.0677802
-0.0565417
-0.0450764
-0.0342794
-0.0248577
-0.0171723
-0.0112108
-0.00662746
-0.0029958
0.000233287
0.00331189
0.00650893
0.00978691
0.0131442
0.0166046
0.0203108
0.0243465
0.0287546
0.0334988
0.0383967
0.0432223
0.0477842
0.0519614
0.0557234
0.0591742
0.0623685
0.0654462
0.0685028
0.0716136
0.0747994
0.0780611
0.0812686
0.0843318
0.087013
0.0892369
0.0908924
0.091993
0.0924274
0.0921712
0.0912082
0.0896245
0.0875306
0.0852049
0.0829115
0.0807177
0.0786724
0.0765421
0.07405
0.0710498
0.0675107
0.0635617
0.0595114
0.0556094
0.0520218
0.0487926
0.0458628
0.0430716
0.0403815
0.0376831
0.0350661
0.032527
0.0301828
0.0281123
0.0264187
0.0252252
0.0245821
0.0244243
0.0246397
0.0249425
0.0250612
0.0248027
0.0239913
0.0226521
0.0209117
0.0189366
0.0168977
0.0148453
0.0127232
0.0104221
0.0078408
0.004895
0.00166421
-0.00160869
-0.00469348
-0.00730589
-0.00938556
-0.0109533
-0.0122814
-0.0135871
-0.0150421
-0.0166474
-0.0181987
-0.0194106
-0.0200155
-0.0198167
-0.0189066
-0.0175912
-0.0162963
-0.015518
-0.0154749
-0.0162846
-0.017815
-0.0197749
-0.0217943
-0.0235347
-0.0247785
-0.0253972
-0.0253787
-0.0248963
-0.0241686
-0.0235049
-0.0230764
-0.0230359
-0.0233302
-0.0238383
-0.0243421
-0.024629
-0.0245804
-0.0240348
-0.02291
-0.0211196
-0.0184607
-0.0147341
-0.00966883
-0.00307827
0.00488264
0.0137969
0.0229118
0.0314084
0.0386562
0.0444496
0.0491579
0.0535704
0.0583777
0.063964
0.0701646
0.0762673
0.0812861
0.0844399
0.0852885
0.083892
0.0806619
0.0762305
0.0712826
0.0664148
0.0622527
0.0593987
0.0582831
0.0589464
0.0607482
0.0623951
0.0622761
0.0588137
0.0511352
0.0392869
0.0242538
0.00767244
-0.00875144
-0.0236223
-0.0360079
-0.0454669
-0.051915
-0.0553475
-0.0560514
-0.0546227
-0.0519286
-0.0490809
-0.0470717
-0.0466249
-0.0480011
-0.050861
-0.0544516
-0.0579315
-0.0604943
-0.0616618
-0.0614207
-0.0601486
-0.0584667
-0.0570578
-0.05648
-0.0570083
-0.0585482
-0.0609719
-0.0642741
-0.069235
-0.0773061
-0.0904483
-0.110723
-0.139082
-0.174072
-0.210827
-0.24059
-0.250942
-0.227494
-0.157279
-0.0330776
0.14186
0.35097
0.564637
0.745247
0.856107
0.872168
0.788121
0.621004
0.405767
0.184959
-0.00334205
-0.13534
-0.205452
-0.223994
-0.209962
-0.183223
-0.158565
-0.142998
-0.137086
-0.137762
-0.14125
-0.144605
-0.146384
-0.146369
-0.144834
-0.142165
-0.138654
-0.134711
-0.130683
-0.127069
-0.124222
-0.122489
-0.121942
-0.122444
-0.123614
-0.12494
-0.1259
-0.126166
-0.125656
-0.124515
-0.12298
-0.121342
-0.119674
-0.117907
-0.115912
-0.113552
-0.110754
-0.107608
-0.104298
-0.100981
-0.0977263
-0.0945341
-0.0913377
-0.0880636
-0.084725
-0.081488
-0.0786151
-0.0763777
-0.0749753
-0.0744712
-0.0747934
-0.0757707
-0.0771719
-0.0788398
-0.0806023
-0.0822572
-0.0836075
-0.0843986
-0.0844094
-0.0835952
-0.0820562
-0.0800448
-0.0778829
-0.0758378
-0.0740433
-0.0726071
-0.0715524
-0.0708086
-0.0703004
-0.069934
-0.069494
-0.0687854
-0.067746
-0.0665312
-0.0655133
-0.065223
-0.066178
-0.0686942
-0.0727916
-0.0780875
-0.0839358
-0.0896644
-0.094608
-0.0982958
-0.100485
-0.101109
-0.100053
-0.097284
-0.0926904
-0.0862854
-0.0782598
-0.0689409
-0.0587821
-0.0482897
-0.0377677
-0.0272432
-0.0166004
-0.00570648
0.00547947
0.0166601
0.0274587
0.037374
0.0460194
0.0533198
0.0593822
0.0644617
0.0687675
0.0725002
0.0756749
0.0782453
0.0801323
0.0812545
0.0815096
0.0809553
0.0797502
0.0782822
0.077077
0.0765668
0.0769735
0.0781079
0.0793663
0.0800493
0.0795368
0.077628
0.0746152
0.0712395
0.0683482
0.066628
0.0663767
0.0673439
0.0688501
0.0699613
0.0698107
0.0678624
0.0640457
0.0588337
0.0530095
0.0474571
0.042886
0.0396306
0.0377152
0.0368821
0.0366829
0.0367227
0.0365245
0.0357594
0.0341825
0.0317101
0.0284292
0.0247011
0.0210355
0.0179331
0.0155671
0.0138542
0.012349
0.0105365
0.00804236
0.00487322
0.00149695
-0.00151717
-0.00349635
-0.00411616
-0.00342171
-0.00176789
0.000307041
0.00232837
0.00394127
0.00485522
0.00489462
0.0038876
0.00181252
-0.00122813
-0.0049034
-0.00879869
-0.0123142
-0.0149257
-0.0163348
-0.0165513
-0.015853
-0.0147986
-0.0139257
-0.0137364
-0.0143066
-0.0154591
-0.0168036
-0.0177911
-0.0180895
-0.0176623
-0.0168829
-0.0163613
-0.0166857
-0.0181871
-0.0207034
-0.0235992
-0.0258538
-0.0263778
-0.0243854
-0.0196844
-0.0128086
-0.00474273
0.00327554
0.0102995
0.0158779
0.0202716
0.0241367
0.0283134
0.0333706
0.0394918
0.0462193
0.0527638
0.058258
0.0620111
0.0637497
0.063646
0.0623
0.0602891
0.0581034
0.055955
0.0537262
0.0511595
0.0480907
0.0448091
0.0419533
0.040283
0.0401203
0.0409916
0.0415761
0.0400026
0.0345673
0.0244532
0.010173
-0.00656172
-0.0232978
-0.0377546
-0.0483501
-0.054653
-0.0572977
-0.0574247
-0.0563599
-0.0551644
-0.054547
-0.0546583
-0.0553794
-0.0563459
-0.0572838
-0.0580092
-0.0584051
-0.058456
-0.0581722
-0.0576344
-0.056963
-0.0564073
-0.0565095
-0.0580072
-0.0618701
-0.0691675
-0.0810091
-0.0983316
-0.121558
-0.15003
-0.181878
-0.213821
-0.241352
-0.259368
-0.262442
-0.244583
-0.198954
-0.118353
0.0029366
0.165604
0.361292
0.569676
0.759605
0.895015
0.944995
0.89416
0.74913
0.537962
0.302483
0.0857857
-0.079699
-0.179718
-0.218572
-0.213477
-0.18608
-0.154915
-0.131026
-0.117763
-0.113412
-0.11425
-0.116844
-0.119124
-0.120392
-0.120709
-0.120293
-0.119386
-0.118183
-0.116841
-0.115564
-0.114352
-0.113119
-0.11175
-0.110047
-0.107899
-0.105388
-0.102694
-0.100034
-0.0975349
-0.0951619
-0.0928468
-0.090465
-0.0879764
-0.0854816
-0.083142
-0.0812
-0.0797584
-0.0788155
-0.078192
-0.0777648
-0.0774423
-0.0772488
-0.0772365
-0.0774349
-0.0777943
-0.0780797
-0.0780648
-0.0774964
-0.076226
-0.0742402
-0.0715887
-0.0683813
-0.0646735
-0.0605392
-0.0561193
-0.0517286
-0.0476966
-0.04453
-0.0425691
-0.0420005
-0.0427518
-0.0444464
-0.0466773
-0.0488989
-0.0508351
-0.0523488
-0.0535316
-0.0546936
-0.0561739
-0.0582999
-0.0612032
-0.0646827
-0.0683011
-0.071506
-0.0738568
-0.0752126
-0.0758017
-0.0761588
-0.07695
-0.0787416
-0.0817921
-0.0859331
-0.0907129
-0.0953904
-0.0992034
-0.101354
-0.101238
-0.0982516
-0.0920112
-0.0824883
-0.069897
-0.0548013
-0.0380881
-0.0207382
-0.00365194
0.0124085
0.0270357
0.0400172
0.0513738
0.0612663
0.0699002
0.0775526
0.0844457
0.0907111
0.0962372
0.100838
0.104243
0.106323
0.107209
0.10728
0.107114
0.107243
0.108104
0.109662
0.11157
0.113297
0.114214
0.113871
0.112094
0.10907
0.105203
0.101101
0.0972509
0.0939879
0.0914378
0.0894191
0.0876549
0.0858895
0.0839775
0.0819068
0.0798707
0.078133
0.076865
0.076087
0.075621
0.0751702
0.0744015
0.0731804
0.0714868
0.0694648
0.0673906
0.0653846
0.0634979
0.0615389
0.0593113
0.056601
0.0533707
0.0497015
0.0458943
0.0423199
0.0391722
0.036619
0.0345812
0.0329017
0.0313208
0.0297109
0.0280006
0.0261916
0.0243929
0.0226886
0.0211407
0.0197706
0.0186651
0.017804
0.0172338
0.0169709
0.0169394
0.0170628
0.0172562
0.0174295
0.0175045
0.0174013
0.0170363
0.0163884
0.0154007
0.0140688
0.0124907
0.0107771
0.00920743
0.00793558
0.00709911
0.00654808
0.00605224
0.0052788
0.00396257
0.00199432
-0.000464967
-0.0030522
-0.00543093
-0.00723469
-0.00840011
-0.00895248
-0.00907721
-0.00880308
-0.00806798
-0.00651687
-0.003705
0.000859745
0.0073782
0.015711
0.0252696
0.0351488
0.0444923
0.052612
0.0592676
0.0646775
0.0692848
0.0735967
0.0778507
0.0818677
0.0852609
0.0874969
0.0882025
0.087258
0.0848067
0.081126
0.0765411
0.0713892
0.0661858
0.0616621
0.0587881
0.0583806
0.060652
0.0648239
0.0691893
0.0714568
0.0695752
0.0624763
0.0504134
0.0349176
0.0181668
0.00231766
-0.0111016
-0.021428
-0.0286772
-0.0332444
-0.0358291
-0.0370571
-0.0375927
-0.038118
-0.0390369
-0.0406219
-0.0428381
-0.045487
-0.0482139
-0.0506324
-0.0523727
-0.0532074
-0.0530659
-0.0521134
-0.0508007
-0.0502309
-0.0520366
-0.0582811
-0.0710683
-0.0918435
-0.120598
-0.155055
-0.190053
-0.217503
-0.22708
-0.207295
-0.147208
-0.0391083
0.11871
0.319396
0.54573
0.77083
0.961661
1.08516
1.11626
1.04499
0.880384
0.649426
0.390941
0.145849
-0.0528718
-0.186918
-0.25485
-0.269078
-0.249464
-0.216318
-0.184914
-0.163223
-0.152679
-0.150554
-0.152728
-0.155783
-0.157997
-0.159089
-0.159552
-0.160052
-0.160855
-0.161861
-0.162742
-0.162957
-0.162192
-0.160337
-0.157547
-0.154155
-0.150606
-0.147287
-0.144401
-0.142072
-0.14017
-0.138555
-0.137098
-0.135707
-0.134407
-0.133242
-0.132164
-0.131124
-0.129914
-0.128351
-0.126335
-0.123906
-0.121289
-0.118724
-0.116501
-0.114776
-0.113566
-0.112806
-0.112168
-0.111341
-0.110101
-0.108232
-0.105765
-0.102948
-0.100154
-0.0977378
-0.0959056
-0.0946891
-0.0939021
-0.0932836
-0.0925171
-0.0914797
-0.0901366
-0.0884597
-0.0865757
-0.0845632
-0.0825003
-0.0804808
-0.0786202
-0.0770635
-0.075984
-0.0755072
-0.0755716
-0.076014
-0.0767755
-0.0777042
-0.0786954
-0.0797934
-0.0810121
-0.0823714
-0.0838706
-0.0854386
-0.0871488
-0.0889985
-0.090983
-0.0928971
-0.094319
-0.0944781
-0.0925428
-0.0878159
-0.0799477
-0.069184
-0.0562892
-0.042345
-0.0284932
-0.015723
-0.00454615
0.00493979
0.0129041
0.019723
0.0258369
0.0315633
0.0371912
0.0428963
0.0487092
0.0546191
0.060473
0.0659949
0.0710405
0.0754964
0.079423
0.0829198
0.0861578
0.089182
0.0919538
0.0942476
0.0957314
0.0961927
0.095517
0.0937829
0.0912813
0.0884135
0.0855907
0.0831462
0.081202
0.0796254
0.0781903
0.0766167
0.0746493
0.0722651
