-0.114277
-0.110805
-0.107205
-0.10408
-0.101845
-0.100751
-0.100688
-0.101306
-0.10219
-0.102752
-0.102505
-0.101203
-0.0988681
-0.0959236
-0.0929935
-0.0907335
-0.0895815
-0.0895072
-0.0900856
-0.0906473
-0.0905188
-0.0895035
-0.08781
-0.086065
-0.0848443
-0.0845801
-0.0852066
-0.0862573
-0.0870652
-0.0870626
-0.0859988
-0.0840311
-0.0815407
-0.0791541
-0.077439
-0.076962
-0.0779635
-0.080552
-0.0845758
-0.0894812
-0.0944728
-0.0984633
-0.100389
-0.0993278
-0.0946598
-0.0862341
-0.0744216
-0.0599692
-0.0440724
-0.0280736
-0.0133952
-0.00113236
0.00812066
0.0144747
0.0186919
0.0219591
0.025513
0.0303665
0.0368113
0.0446316
0.0531612
0.0616395
0.0693178
0.0757316
0.0808043
0.0845795
0.0872564
0.0890481
0.0900796
0.0904289
0.0900428
0.0889681
0.0873773
0.0854446
0.0833923
0.0814702
0.079781
0.0783547
0.0771158
0.0759506
0.0747667
0.0735156
0.0722093
0.070839
0.0695028
0.0681836
0.0668243
0.0653963
0.0638364
0.0621565
0.0603888
0.0586105
0.0568638
0.0550869
0.0532411
0.0510855
0.0485263
0.0455644
0.0422533
0.0388304
0.0356275
0.0328846
0.0307577
0.0292575
0.0281465
0.0270903
0.0256391
0.0233874
0.0201416
0.0160817
0.0115933
0.00727648
0.00378119
0.00141826
0.000199121
-0.000252355
-0.000639519
-0.00163871
-0.00365917
-0.00672642
-0.0104432
-0.0141479
-0.0171634
-0.0191232
-0.0199839
-0.0200294
-0.0197355
-0.0196166
-0.0200798
-0.0213748
-0.0235798
-0.0266806
-0.0305351
-0.0347477
-0.0388714
-0.0423403
-0.0446843
-0.0455771
-0.0450908
-0.0435377
-0.0414706
-0.0394335
-0.0378523
-0.03682
-0.0362615
-0.0359317
-0.0357319
-0.0356042
-0.0357278
-0.0363215
-0.0374714
-0.0390708
-0.0408119
-0.0422579
-0.0429017
-0.0424604
-0.0406799
-0.0375566
-0.0330904
-0.0274304
-0.020707
-0.0132759
-0.00551918
0.00206296
0.00898022
0.0149354
0.019884
0.024042
0.0280374
0.0324335
0.0377508
0.0440478
0.0510299
0.0578663
0.0636364
0.0674661
0.0689396
0.068144
0.0656493
0.0623632
0.0591218
0.0564882
0.0544111
0.0525613
0.0504313
0.0477959
0.044969
0.04279
0.0423022
0.0440997
0.0479145
0.052314
0.055201
0.0543197
0.0480615
0.0361032
0.0194167
0.000118262
-0.0192765
-0.0364383
-0.0498445
-0.0588284
-0.0636662
-0.0652422
-0.0647845
-0.0634479
-0.0621302
-0.0612739
-0.0608714
-0.060727
-0.0606142
-0.0605522
-0.0607742
-0.0616314
-0.0633482
-0.0658412
-0.0685747
-0.0706914
-0.0713124
-0.0697983
-0.0660711
-0.0606731
-0.0547044
-0.049573
-0.0466445
-0.0470734
-0.0515527
-0.0603021
-0.0733086
-0.0904256
-0.111514
-0.136532
-0.16469
-0.193682
-0.218662
-0.23189
-0.222761
-0.179213
-0.0905981
0.0483463
0.233276
0.44755
0.662462
0.84182
0.950051
0.962194
0.871934
0.694827
0.464606
0.224229
0.0136077
-0.140258
-0.2284
-0.258639
-0.249241
-0.221024
-0.190746
-0.167707
-0.154165
-0.148087
-0.146265
-0.146117
-0.146615
-0.147686
-0.149473
-0.151673
-0.153534
-0.154202
-0.153223
-0.150822
-0.147742
-0.144966
-0.143236
-0.142832
-0.14327
-0.143814
-0.143516
-0.141697
-0.138104
-0.13294
-0.126735
-0.120321
-0.114501
-0.109921
-0.107063
-0.106072
-0.106636
-0.108224
-0.109893
-0.110784
-0.110248
-0.108155
-0.104896
-0.10124
-0.0981048
-0.0961132
-0.0954797
-0.0958453
-0.0965919
-0.0970642
-0.0968324
-0.0958475
-0.0944327
-0.0930544
-0.0920986
-0.09181
-0.0922101
-0.0931051
-0.0942731
-0.0954344
-0.0963385
-0.0967782
-0.096645
-0.0958454
-0.094555
-0.0929318
-0.0912309
-0.0897102
-0.0885424
-0.0878894
-0.0877929
-0.0882763
-0.0892647
-0.0907374
-0.0925236
-0.0944269
-0.0962726
-0.0979614
-0.0994901
-0.10106
-0.102957
-0.105454
-0.10869
-0.112515
-0.116356
-0.119264
-0.120192
-0.118221
-0.112931
-0.104428
-0.0933596
-0.0807707
-0.0677055
-0.0550539
-0.0435291
-0.0334593
-0.0250211
-0.0181501
-0.0125268
-0.0075557
-0.00252716
0.00330234
0.0104305
0.0189631
0.0285732
0.03866
0.0484597
0.0573834
0.0651044
0.071583
0.0770798
0.0818745
0.0862103
0.0902255
0.093981
0.0974793
0.100887
0.10436
0.10792
0.111424
0.114593
0.116813
0.117536
0.116409
0.113347
0.108749
0.10329
0.0977758
0.0930238
0.0896061
0.0876966
0.0870866
0.0872442
0.0873569
0.0866892
0.0847869
0.0815816
0.0774359
0.0729735
0.0688655
0.0657311
0.0638957
0.063318
0.0637595
0.0647104
0.0656581
0.0660091
0.0654277
0.0637524
0.0611171
0.0578875
0.0543959
0.0509562
0.0477407
0.044673
0.0416815
0.0386969
0.0357547
0.0330204
0.030562
0.0283928
0.026412
0.0244306
0.0223137
0.0200271
0.0177519
0.0156505
0.0139575
0.0128322
0.0122673
0.0121701
0.012229
0.0121021
0.0113804
0.00991452
0.00777589
0.00533759
0.00317098
0.00179925
0.00151076
0.00227355
0.00367331
0.00523455
0.00656143
0.00726062
0.00718888
0.00614089
0.00394711
0.000554154
-0.00380009
-0.00850898
-0.0127104
-0.0155426
-0.0165349
-0.0157375
-0.0138174
-0.0118151
-0.010601
-0.0107241
-0.012107
-0.0142711
-0.0165049
-0.0181542
-0.0187588
-0.018158
-0.0162771
-0.0131218
-0.00865027
-0.00296153
0.00377076
0.0111873
0.0188015
0.0261821
0.0329454
0.0389861
0.0444225
0.0496228
0.054833
0.0604102
0.0664843
0.0728132
0.0789554
0.0843381
0.0882749
0.0903192
0.090366
0.0887073
0.0859878
0.0828383
0.0796872
0.0766274
0.0733587
0.069551
0.0651318
0.0607016
0.0572866
0.0561597
0.0581839
0.0632626
0.0701882
0.0768888
0.0809891
0.0805892
0.0748923
0.0641634
0.0496602
0.033064
0.0159792
-0.000297886
-0.0149788
-0.0275578
-0.0377854
-0.045473
-0.0506632
-0.0535152
-0.05451
-0.0543029
-0.0535871
-0.0529619
-0.0527751
-0.0531296
-0.0538459
-0.0547179
-0.0554588
-0.0559204
-0.0559644
-0.0554677
-0.0542497
-0.0523204
-0.0497805
-0.0470195
-0.0448715
-0.0445025
-0.0474274
-0.0552696
-0.0692907
-0.0901071
-0.117067
-0.147595
-0.176831
-0.197634
-0.201081
-0.177116
-0.116046
-0.0106019
0.141149
0.332937
0.547973
0.759171
0.93248
1.03418
1.04005
0.943501
0.759199
0.52047
0.270431
0.0501491
-0.111973
-0.205945
-0.239151
-0.230493
-0.201864
-0.171039
-0.148029
-0.13539
-0.130931
-0.130934
-0.13218
-0.133012
-0.133083
-0.132713
-0.132312
-0.132204
-0.132501
-0.133246
-0.13437
-0.135623
-0.136641
-0.137086
-0.136712
-0.135524
-0.133665
-0.131476
-0.129231
-0.127077
-0.125081
-0.12311
-0.121011
-0.118712
-0.11621
-0.113705
-0.11136
-0.109348
-0.107747
-0.106489
-0.10542
-0.104383
-0.103173
-0.101681
-0.099917
-0.0980312
-0.0962225
-0.0947496
-0.0937748
-0.0932856
-0.093143
-0.0931406
-0.0929943
-0.0926436
-0.0921674
-0.0918273
-0.09197
-0.0928137
-0.0944016
-0.0964321
-0.0984571
-0.0998714
-0.100235
-0.0993441
-0.0974078
-0.0948637
-0.0922567
-0.0900329
-0.0884487
-0.0874925
-0.0869907
-0.0867848
-0.0867783
-0.0869705
-0.0874946
-0.0885404
-0.0902826
-0.0927627
-0.0960259
-0.0998442
-0.103932
-0.10803
-0.111875
-0.115366
-0.118471
-0.121152
-0.123087
-0.123736
-0.122247
-0.117817
-0.109936
-0.098658
-0.0847228
-0.0694272
-0.0541328
-0.0400091
-0.0275892
-0.0166799
-0.00658672
0.00350639
0.0142863
0.0258747
0.0379985
0.0499828
0.0611603
0.0710563
0.0796473
0.0872767
0.0943179
0.101178
0.107933
0.114328
0.119898
0.124252
0.127125
0.128681
0.129438
0.129935
0.130671
0.13184
0.133289
0.134726
0.135857
0.136494
0.136602
0.136249
0.135481
0.134296
0.13249
0.129998
0.126827
0.123206
0.119366
0.11563
0.112274
0.109335
0.106827
0.104667
0.102769
0.101039
0.0993805
0.0976406
0.095623
0.0932475
0.0904629
0.0874229
0.0843281
0.0814198
0.0788276
0.0764998
0.0743207
0.0721333
0.0697982
0.0672543
0.0645207
0.0615777
0.0584681
0.0553319
0.0523677
0.0497845
0.0477843
0.0464982
0.0458895
0.0457568
0.0457452
0.0454076
0.0444338
0.0425771
0.0398157
0.036345
0.0325336
0.0287863
0.025518
0.0231257
0.0217352
0.0213298
0.0217082
0.0225331
0.0234561
0.0239757
0.0237503
0.0225719
0.0204181
0.0174834
0.0141901
0.010967
0.00817455
0.00593691
0.00413681
0.00246929
0.000612325
-0.00162967
-0.00431868
-0.00723288
-0.0100761
-0.0125369
-0.0144705
-0.015791
-0.0165084
-0.0167575
-0.0165479
-0.0159881
-0.015152
-0.0141909
-0.01328
-0.0125123
-0.012114
-0.0121008
-0.0124404
-0.0129818
-0.0133796
-0.0130996
-0.0115109
-0.00799259
-0.00220199
0.00575053
0.0152471
0.0252662
0.0346495
0.0425094
0.0485436
0.0529676
0.0564989
0.0599477
0.0639595
0.0687898
0.074185
0.0797163
0.0847775
0.0888924
0.091624
0.0926601
0.0919089
0.0892882
0.0849627
0.0792901
0.0728667
0.0663729
0.0605878
0.0563213
0.0541608
0.0544824
0.0569991
0.0607668
0.0642144
0.0655406
0.0630853
0.0560036
0.0444216
0.0294234
0.0127645
-0.00371766
-0.0185218
-0.0308121
-0.0403503
-0.0473945
-0.0524479
-0.0560339
-0.0586318
-0.0605051
-0.0617408
-0.0623097
-0.062174
-0.0614181
-0.0601697
-0.0587703
-0.0573787
-0.0563303
-0.0557298
-0.0556947
-0.0562147
-0.0571935
-0.0582564
-0.0589907
-0.058919
-0.0578164
-0.0559986
-0.054438
-0.0547044
-0.0586512
-0.0680161
-0.0838979
-0.106432
-0.134641
-0.166148
-0.196842
-0.220789
-0.2303
-0.216505
-0.169868
-0.0818193
0.0529987
0.233782
0.450966
0.684305
0.903765
1.07385
1.16111
1.1435
1.01823
0.804452
0.53979
0.27026
0.038076
-0.129112
-0.223326
-0.254642
-0.244288
-0.215768
-0.187366
-0.168686
-0.161356
-0.162205
-0.166747
-0.171507
-0.174826
-0.176625
-0.177399
-0.17761
-0.177371
-0.176635
-0.175217
-0.173112
-0.170377
-0.16723
-0.163924
-0.16058
-0.157422
-0.154442
-0.151584
-0.148752
-0.145833
-0.142785
-0.139686
-0.136673
-0.133945
-0.131593
-0.129627
-0.127911
-0.126336
-0.124745
-0.123201
-0.121799
-0.120694
-0.119954
-0.11956
-0.119237
-0.118781
-0.118001
-0.116904
-0.115676
-0.114641
-0.114188
-0.114472
-0.115444
-0.116816
-0.118102
-0.118818
-0.118646
-0.117532
-0.115689
-0.113565
-0.111587
-0.110065
-0.109098
-0.10854
-0.108202
-0.107759
-0.107062
-0.10608
-0.104893
-0.103586
-0.102255
-0.100881
-0.0994172
-0.0978413
-0.0963152
-0.0950601
-0.0943436
-0.0944163
-0.095459
-0.0975345
-0.100586
-0.104423
-0.108678
-0.112826
-0.116256
-0.118118
-0.117673
-0.114303
-0.107731
-0.0980212
-0.0855615
-0.0710564
-0.0554638
-0.0397909
-0.0250184
-0.0119007
-0.000823876
0.00823808
0.0157074
0.0221968
0.0284564
0.0350992
0.0424512
0.0505982
0.0593575
0.0683696
0.07716
0.0853332
0.0924346
0.0981816
0.102425
0.105129
0.106475
0.10673
0.106226
0.105314
0.10426
0.1032
0.102202
0.101414
0.100972
0.100998
0.101595
0.102742
0.104155
0.105533
0.106484
0.106735
0.106344
0.105378
0.104029
0.102433
0.100643
0.0984336
0.0957408
0.0924051
0.0885194
0.0844115
0.0804951
0.0771765
0.074686
0.0728998
0.0714842
0.0699159
0.0678061
0.0649486
0.0614364
0.0576561
0.0540189
0.0508045
0.0480623
0.0454987
0.0428164
0.0397876
0.0364023
0.0329594
0.0297313
0.02708
0.0250023
0.0234013
0.021915
0.0202743
0.0183675
0.0162084
0.0139299
0.0116675
0.00947657
0.00740515
0.00546455
0.00367191
0.00209932
0.000760189
-0.00036388
-0.0012628
-0.00204035
-0.00278464
-0.00360991
-0.00457329
-0.00575068
-0.00713943
-0.00875153
-0.0104785
-0.0120593
-0.0133715
-0.0142375
-0.0146305
-0.0145838
-0.0141694
-0.013515
-0.0126986
-0.0118635
-0.011099
-0.0104969
-0.0101362
-0.0100859
-0.0103767
-0.0110373
-0.0120397
-0.013257
-0.0145322
-0.0155421
-0.0157542
-0.0146668
-0.0118915
-0.00729703
-0.00104325
0.00642608
0.0145297
0.0227179
0.0305203
0.0376772
0.043971
0.0492724
0.0534973
0.0567168
0.0591289
0.0611939
0.0634751
0.0665776
0.0708815
0.0763795
0.0826225
0.0888041
0.0939463
0.0971363
0.0978358
0.0960925
0.0924292
0.0879123
0.0837171
0.080959
0.0803091
0.0816982
0.0843417
0.0867887
0.0874093
0.0847341
0.0779432
0.0670458
0.0528511
0.0366254
0.0197512
0.00353601
-0.0110167
-0.0232437
-0.0327404
-0.039445
-0.0434847
-0.0453407
-0.0458049
-0.0456728
-0.045677
-0.0462341
-0.0474475
-0.0491984
-0.0512016
-0.0531556
-0.0549226
-0.0564748
-0.0578731
-0.0592191
-0.0605304
-0.061739
-0.0624343
-0.0621832
-0.0606914
-0.0579874
-0.054576
-0.0515489
-0.0505039
-0.0532622
-0.0616196
-0.0766951
-0.0988312
-0.127002
-0.158419
-0.188374
-0.210238
-0.21594
-0.196435
-0.142584
-0.0464893
0.0957482
0.280964
0.496104
0.716751
0.909488
1.03815
1.0734
1.00207
0.833302
0.597455
0.338247
0.10058
-0.0818883
-0.194217
-0.240943
-0.240409
-0.215941
-0.187557
-0.167115
-0.157883
-0.157335
-0.160795
-0.164242
-0.165572
-0.164464
-0.161795
-0.158701
-0.156018
-0.154233
-0.153358
-0.153068
-0.15294
-0.152508
-0.151438
-0.149756
-0.147629
-0.145184
-0.142624
-0.139993
-0.137357
-0.134769
-0.132344
-0.130279
-0.128696
-0.127622
-0.12692
-0.126376
-0.125721
-0.124758
-0.123459
-0.12182
-0.119957
-0.11798
-0.116008
-0.114117
-0.11244
-0.111079
-0.11009
-0.109539
-0.109318
-0.109225
-0.108991
-0.10834
-0.107132
-0.105368
-0.103139
-0.100673
-0.0981734
-0.0958343
-0.0937313
-0.0919276
-0.0904643
-0.0892992
-0.0884405
-0.087937
-0.0877206
-0.0876784
-0.087696
-0.0876053
-0.0872893
-0.0867077
-0.0858856
-0.0850091
-0.084326
-0.0839776
-0.0841085
-0.0847841
-0.0858495
-0.0871834
-0.088501
-0.0895768
-0.0902822
-0.0906197
-0.0907252
-0.0907377
-0.0906844
-0.0903312
-0.089044
-0.0860452
-0.0805486
-0.071934
-0.0601705
-0.0458481
-0.0300436
-0.0140168
0.00112391
0.0146573
0.0263409
0.0364202
0.0453775
0.0537067
0.0616982
0.0694423
0.0767565
0.0834051
0.089042
0.09348
0.0966363
0.0986783
0.0999412
0.100974
0.102252
0.104144
0.106734
0.109831
0.113064
0.115807
0.117481
0.117635
0.116097
0.113053
0.108981
0.10459
0.100673
0.0977804
0.0961215
0.0954616
0.0952555
0.0949451
0.0939864
0.0920805
0.0892591
0.0856007
0.0813677
0.0767561
0.0720892
0.0676171
0.0637024
0.0607202
0.0589024
0.0583364
0.0587605
0.0597558
0.060711
0.061009
0.0602338
0.0581555
0.0548355
0.0506174
0.0459332
0.0412763
0.0370276
0.0334292
0.0305104
0.0280162
0.0257106
0.0233507
0.0207311
0.0178316
0.0147374
0.0116411
0.00868984
0.00609475
0.00401387
0.00256097
0.00178285
0.00153835
0.00161534
0.00166452
0.00141624
0.000675619
-0.000561975
-0.00214504
-0.0037981
-0.00527345
-0.00633883
-0.00685751
-0.00682
-0.00638427
-0.0057999
-0.00527972
-0.00505291
-0.00519695
-0.00565741
-0.0061713
-0.00654153
-0.00668294
-0.00669338
-0.00683105
-0.00740125
-0.00848724
-0.0100314
-0.0115987
-0.012666
-0.0127595
-0.0115324
-0.00887694
-0.00496706
-5.89569e-5
0.00563485
0.0119297
0.0186587
0.0256202
0.0325202
0.0390728
0.0452249
0.0510693
0.0569774
0.0634085
0.0706015
0.0783068
0.0857895
0.0919338
0.0956014
0.0961646
0.0938808
0.0898523
0.085824
0.0834424
0.0837326
0.0866748
0.0909608
0.0944716
0.0950901
0.0912983
0.0828021
0.0705614
0.0562823
0.0417595
0.0283532
0.0165793
0.00624507
-0.00311763
-0.0119491
-0.0204051
-0.0282706
-0.0351881
-0.0409934
-0.0457439
-0.0496117
-0.0528804
-0.0557109
-0.0581587
-0.0602291
-0.0618031
-0.0627864
-0.0631709
-0.0630018
-0.0624417
-0.0618455
-0.0614775
-0.0614995
-0.0618353
-0.0621551
-0.0621064
-0.0615112
-0.0607072
-0.0608347
-0.0635884
-0.0709223
-0.0845513
-0.105398
-0.133232
-0.165914
-0.199071
-0.22589
-0.23712
-0.221681
-0.168208
-0.0677492
0.0823546
0.275049
0.491452
0.701634
0.869723
0.962228
0.957551
0.853086
0.667322
0.435569
0.200136
-0.00121012
-0.144638
-0.223961
-0.248907
-0.238276
-0.212325
-0.186529
-0.168816
-0.160447
-0.158713
-0.159995
-0.161585
-0.162337
-0.1623
-0.162039
-0.16177
-0.161441
-0.160818
-0.159538
-0.157517
-0.154841
-0.151922
-0.149232
-0.147138
-0.14583
-0.14515
-0.144667
-0.14371
-0.141861
-0.138873
-0.135046
-0.130985
-0.127385
-0.124846
-0.123562
-0.12331
-0.123585
-0.123726
-0.123133
-0.121403
-0.118439
-0.114472
-0.109983
-0.10568
-0.102332
-0.100513
-0.100546
-0.10227
-0.10511
-0.108186
-0.110581
-0.111498
-0.110593
-0.107883
-0.103761
-0.0987916
-0.0936327
-0.0887989
-0.0848941
-0.0822835
-0.0812073
-0.081857
-0.0840468
-0.0872814
-0.0908788
-0.094148
-0.0964314
-0.0974488
-0.0972883
-0.096276
-0.0949643
-0.0937699
-0.0929917
-0.0926772
-0.0927793
-0.0932733
-0.0941478
-0.0955607
-0.0976546
-0.100561
-0.104194
-0.108341
-0.112489
-0.116023
-0.118132
-0.117949
-0.114737
-0.107922
-0.0973581
-0.0833791
-0.0668166
-0.0488137
-0.0306285
-0.013417
0.00194605
0.0149789
0.0256832
0.0342946
0.0413575
0.0474161
0.0530169
0.0586594
0.0645772
0.0708788
0.0776793
0.0849608
0.0926256
0.100463
0.108019
0.114698
0.119873
0.123031
0.123955
0.122756
0.119903
0.115959
0.111551
0.107152
0.103026
0.0993129
0.0962013
0.0938673
0.0925042
0.0922804
0.0930441
0.0944527
0.0958246
0.0963123
0.0951823
0.0920813
0.0870699
0.0806425
0.0735766
0.0667809
0.0610559
0.0569816
0.0547219
0.0540174
0.0542075
0.0544767
0.0539794
0.0521434
0.0488655
0.0445239
0.0398283
0.0355665
0.032321
0.0302981
0.0292593
0.0287198
0.0281462
0.0271003
0.0254523
0.0232906
0.0209791
0.0187884
0.0168017
0.0149493
0.0130445
0.0108978
0.00847509
0.00600127
0.00383421
0.00238523
0.00185823
0.00211074
0.00269522
0.00305638
0.00256545
0.000880742
-0.00193719
-0.0054741
-0.00901696
-0.0116939
-0.0127079
-0.0116592
-0.00855347
-0.00404052
0.000839576
0.00489874
0.00708502
0.00686823
0.00441774
0.000463893
-0.00393752
-0.00780842
-0.0104753
-0.0118495
-0.0122317
-0.0124079
-0.0130093
-0.0143817
-0.0164573
-0.0186732
-0.0201562
-0.0201937
-0.0184014
-0.0148265
-0.00980148
-0.00384081
0.00281915
0.0101928
0.0184019
0.0275675
0.0373952
0.0473156
0.0565241
0.0642603
0.0700229
0.0735453
0.0748453
0.0742217
0.0721097
0.0690111
0.0654523
0.0620765
0.059235
0.057102
0.0558782
0.0555737
0.0561584
0.0576688
0.0597318
0.0616892
0.0623794
0.0606015
0.0552722
0.0459943
0.0332344
0.018331
0.00317599
-0.0103397
-0.0208928
-0.0279746
-0.0320459
-0.0341358
-0.0355272
-0.0373409
-0.0401692
-0.0438252
-0.0477063
-0.0510215
-0.0530909
-0.0536372
-0.0529693
-0.0516783
-0.0503805
-0.0496049
-0.0493102
-0.0491814
-0.0487168
-0.0474209
-0.0451631
-0.0424118
-0.0402606
-0.0405652
-0.0454645
-0.0570976
-0.0769354
-0.104887
-0.138389
-0.171802
-0.196496
-0.201274
-0.173639
-0.102219
0.0202526
0.193383
0.405998
0.634894
0.846813
1.00418
1.07414
1.03807
0.898205
0.678519
0.419094
0.165298
-0.0442405
-0.186801
-0.258878
-0.273044
-0.250888
-0.214579
-0.180584
-0.157196
-0.145625
-0.142894
-0.144641
-0.147258
-0.148637
-0.148165
-0.146047
-0.142873
-0.139284
-0.135931
-0.133346
-0.131778
-0.131266
-0.131482
-0.132102
-0.132706
-0.133031
-0.132979
-0.132568
-0.13178
-0.130665
-0.129203
-0.127389
-0.12527
-0.122959
-0.120681
-0.118649
-0.11701
-0.115794
-0.114887
-0.114126
-0.113271
-0.112176
-0.110746
-0.10905
-0.107207
-0.105432
-0.103923
-0.102819
-0.102175
-0.101832
-0.101549
-0.101023
-0.0999746
-0.0982155
-0.0957193
-0.0925446
-0.0889471
-0.0851919
-0.0816243
-0.0785182
-0.0761223
-0.0745755
-0.073923
-0.0741125
-0.074964
-0.076313
-0.077989
-0.0798391
-0.0817995
-0.0838217
-0.0858152
-0.0876793
-0.0893567
-0.0907642
-0.0919809
-0.0931644
-0.0946645
-0.0968312
-0.0999687
-0.1041
-0.109058
-0.114406
-0.119632
-0.1243
-0.128032
-0.130624
-0.131814
-0.13125
-0.128454
-0.122869
-0.114034
-0.10181
-0.0865689
-0.0691479
-0.0507524
-0.0325978
-0.0156059
-0.000311214
0.0132256
0.0253141
0.0363374
0.0466456
0.0564318
0.0657932
0.0747461
0.0833345
0.091678
0.0997342
0.107443
0.11457
0.120788
0.125782
0.129353
0.131507
0.132483
0.132716
0.132634
0.13264
0.132933
0.133446
0.133944
0.134096
0.133591
0.132294
0.130244
0.127585
0.124513
0.121219
0.117787
0.114182
0.11046
0.106619
0.102747
0.0990885
0.0958077
0.0929584
0.0905004
0.0882619
0.0860296
0.0837082
0.0813562
0.0791538
0.077293
0.075845
0.074677
0.0735617
0.0722224
0.0705067
0.0684773
0.0663677
0.064531
0.0631225
0.0621453
0.0612149
0.0598887
0.0577449
0.0545509
0.050457
0.0458322
0.0411501
0.0368092
0.0329823
0.0295634
0.0264
0.0233774
0.0205551
0.0182228
0.0167256
0.0162484
0.0166985
0.0176435
0.0184457
0.0184203
0.0172632
0.0150225
0.0122117
0.00958099
0.00772147
0.00695404
0.00714664
0.00776825
0.00817783
0.00789549
0.00663195
0.00446537
0.00161809
-0.00157156
-0.00471516
-0.00742611
-0.00945977
-0.0106668
-0.0108929
-0.0102719
-0.00906687
-0.0075229
-0.00584603
-0.00406732
-0.00201309
0.000640511
0.00413092
0.0086579
0.0142951
0.0207766
0.0279025
0.0352905
0.0426359
0.0496846
0.0563048
0.0625476
0.0685175
0.0744102
0.080404
0.086367
0.0919746
0.0965412
0.0993475
0.0999459
0.0982618
0.0947543
0.0901596
0.0853441
0.0810527
0.0779816
0.0766737
0.0776295
0.0812357
0.0873743
0.0951139
0.102663
0.107602
0.10762
0.101206
0.0882441
0.0700426
0.0487891
0.0270168
0.00679073
-0.0105968
-0.0245778
-0.0351987
-0.0427328
-0.0475537
-0.0501296
-0.0511683
-0.0515291
-0.0519659
-0.0530458
-0.0548928
-0.0572481
-0.0596448
-0.0615651
-0.0627252
-0.0632054
-0.0632849
-0.0631681
-0.062954
-0.0625986
-0.0620437
-0.0613586
-0.0611194
-0.0624536
-0.066967
-0.0764803
-0.0924473
-0.115393
-0.144317
-0.176158
-0.205867
-0.227114
-0.23363
-0.220457
-0.185198
-0.128106
-0.0512469
0.0429712
0.153388
0.280803
0.427133
0.593215
0.775383
0.96269
1.13563
1.26785
1.3314
1.30428
1.17851
0.964894
0.692554
0.402497
0.137076
-0.0708906
-0.205626
-0.27
-0.281203
-0.26272
-0.235845
-0.214553
-0.204126
-0.20331
-0.207892
-0.213685
-0.217942
-0.219818
-0.219585
-0.218008
-0.215837
-0.213623
-0.211743
-0.210457
-0.209769
-0.209481
-0.209314
-0.208911
-0.208062
-0.206619
-0.204617
-0.202196
-0.199627
-0.197126
-0.194931
-0.193023
-0.191338
-0.189639
-0.187763
-0.185629
-0.183298
-0.18092
-0.178662
-0.176517
-0.174399
-0.172255
-0.170019
-0.167827
-0.165946
-0.164692
-0.164274
-0.164636
-0.165424
-0.166255
-0.166612
-0.166198
-0.164972
-0.16308
-0.160717
-0.158171
-0.155558
-0.152914
-0.150285
-0.147684
-0.145107
-0.142643
-0.140477
-0.138811
-0.137832
-0.137671
-0.138459
-0.140007
-0.142014
-0.144039
-0.145704
-0.146743
-0.147061
-0.146919
-0.146645
-0.146594
-0.146988
-0.147858
-0.148948
-0.149929
-0.150432
-0.150165
-0.148902
-0.146522
-0.142696
-0.137091
-0.129287
-0.118922
-0.105896
-0.0904344
-0.0732122
-0.0551744
-0.0373166
-0.0206954
-0.00590002
0.0067767
0.017517
0.0268541
0.0353023
0.0434445
0.0515249
0.0596535
0.0677024
0.0755082
0.082963
0.0900299
0.0967195
0.10301
0.10877
0.11375
0.11763
0.120205
0.121424
0.121499
0.120811
0.119903
0.119222
0.119001
0.119185
0.119584
0.119801
0.119592
0.11878
0.117311
0.11531
0.112878
0.110172
0.107236
0.104174
0.101113
0.098191
0.0955488
0.0933747
0.0917145
0.0905311
0.0896442
0.0887323
0.0874248
0.0853854
0.0824614
0.0787712
0.074655
0.0705714
0.0669392
0.0640391
0.0618307
0.0601024
0.0583674
0.0562902
0.0536875
0.0506073
0.0472833
0.0440297
0.0410799
0.0385337
0.0364048
0.0345495
0.0328375
0.0310496
0.0290011
0.0265511
0.0235479
0.0200249
0.016128
0.0122266
0.00866603
0.00576987
0.00365592
0.0022757
0.0014439
0.000868773
0.000308954
-0.000536378
-0.00167845
-0.00311145
-0.0047325
-0.00640658
-0.00798136
-0.00949014
-0.0110222
-0.0127272
-0.0148411
-0.0172582
-0.0197189
-0.0217833
-0.022926
-0.022855
-0.0215097
-0.0192775
-0.0166469
-0.0143127
-0.0126314
-0.0116979
-0.0112856
-0.0108601
-0.00985054
-0.00780669
-0.00446979
0.000233786
0.00613139
0.0128587
0.0199765
0.0269533
0.0333461
0.0388637
0.0435404
0.04764
0.0517731
0.0564564
0.0620533
0.0685965
0.0756839
0.0824837
0.0880156
0.0913948
0.0920692
0.0901063
0.0859368
0.0804524
0.0747747
0.0699019
0.066654
0.0656025
0.0669583
0.0706657
0.0761842
0.0824169
0.0876789
0.0902813
0.0885381
0.0816046
0.0695354
0.0533374
0.034611
0.0151804
-0.00326713
-0.0194997
-0.0327325
-0.0426341
-0.0492981
-0.0530989
-0.0548681
-0.0556149
-0.0563082
-0.0575318
-0.0595499
-0.0620335
-0.0644562
-0.0662995
-0.067147
-0.0668932
-0.0656515
-0.0636704
-0.0612199
-0.0586846
-0.0561921
-0.0539805
-0.0522329
-0.0511564
-0.0510707
-0.0525598
-0.0566086
-0.0644931
-0.077551
-0.0967457
-0.122236
-0.152722
-0.184588
-0.211677
-0.225333
-0.215055
-0.169513
-0.0790571
0.0613712
0.248835
0.469684
0.698819
0.902213
1.0433
1.09221
1.03468
0.87771
0.649244
0.391105
0.147577
-0.0464363
-0.173292
-0.234165
-0.244595
-0.22641
-0.19977
-0.177822
-0.16556
-0.162087
-0.163772
-0.166969
-0.169452
-0.170501
-0.170224
-0.169051
-0.167231
-0.164943
-0.162255
-0.159357
-0.156414
-0.153646
-0.151172
-0.14902
-0.147218
-0.145696
-0.144431
-0.143337
-0.142282
-0.141155
-0.139783
-0.138147
-0.136237
-0.134153
-0.132013
-0.129882
-0.127719
-0.125517
-0.123083
-0.120321
-0.117219
-0.113892
-0.110541
-0.107401
-0.104758
-0.102758
-0.101431
-0.100653
-0.100239
-0.0999213
-0.0995013
-0.0988326
-0.0978992
-0.0967785
-0.0956431
-0.0947003
-0.0942024
-0.0942296
-0.0947942
-0.095662
-0.09645
-0.0967565
-0.096263
-0.0948065
-0.0925289
-0.0897301
-0.0869172
-0.0844741
-0.0827165
-0.0816872
-0.0812601
-0.0812088
-0.0812861
-0.0813475
-0.0813725
-0.0815749
-0.0820764
-0.0831424
-0.0848336
-0.0870955
-0.0897864
-0.0925949
-0.0951621
-0.0971064
-0.0979747
-0.0973965
-0.0950084
-0.0904997
-0.0837377
-0.0746981
-0.0636579
-0.0511279
-0.0378053
-0.024476
-0.0118258
-0.000368311
0.00966391
0.0182685
0.0256844
0.032184
0.0380759
0.0438068
0.0497355
0.0562435
0.063558
0.0716727
0.0803855
0.089143
0.0972917
0.104193
0.109405
0.112832
0.114709
0.115532
0.115945
0.116426
0.117261
0.118429
0.119692
0.120636
0.120911
0.120328
0.118846
0.116817
0.114536
0.112367
0.110573
0.109199
0.108047
0.106886
0.105423
0.103448
0.100892
0.0978429
0.0944512
0.0909042
0.0873577
0.0839281
0.080643
0.0775159
0.0744711
0.0714511
0.0684306
0.0653234
0.0621393
0.0588577
0.0555042
0.0522392
0.0492804
0.0467149
0.0445927
0.0427615
0.0408139
0.0382238
0.0347303
0.0302784
0.0252561
0.0203563
0.0162719
0.0133735
0.0117043
0.0109174
0.0105026
0.00995823
0.00905147
0.00777768
0.00634216
0.00497248
0.00373221
0.00262953
0.0014587
7.639e-5
-0.00162432
-0.00377509
-0.00633387
-0.00915664
-0.0120484
-0.0148476
-0.0172866
-0.0191981
-0.0205319
-0.0212074
-0.0213836
-0.0212518
-0.0210755
-0.0210881
-0.0214358
-0.0221031
-0.0229782
-0.0237989
-0.0243032
-0.0243558
-0.0239397
-0.0232099
-0.022414
-0.0217845
-0.0214398
-0.0214226
-0.0216803
-0.0220756
-0.0224634
-0.0226823
-0.0224565
-0.0213884
-0.0191765
-0.0154626
-0.0100811
-0.00317849
0.00496318
0.0137811
0.0225612
0.0306601
0.0375323
0.0429254
0.0468916
0.0498085
0.0521866
0.0547033
0.057921
0.0622129
0.0676033
0.073829
0.0801812
0.0858128
0.0897971
0.0914766
0.0906102
0.0874763
0.0828706
0.0779317
0.073944
0.0719577
0.07268
0.0762833
0.0820264
0.0884482
0.0934804
0.0949489
0.091315
0.0818926
0.0672581
0.0488928
0.0288206
0.00894708
-0.00917361
-0.0245237
-0.0365275
-0.0450886
-0.0503393
-0.0529061
-0.0537166
-0.0539789
-0.0547507
-0.0565637
-0.0592751
-0.0621661
-0.0644391
-0.0654426
-0.065196
-0.0643152
-0.0635784
-0.0636878
-0.0647867
-0.0664447
-0.0679724
-0.0686261
-0.0679777
-0.0662251
-0.063879
-0.0617865
-0.0610649
-0.0630469
-0.0693434
-0.081546
-0.100926
-0.127809
-0.160894
-0.196538
-0.228554
-0.248724
-0.24752
-0.215315
-0.143675
-0.0274235
0.133273
0.330421
0.546623
0.755409
0.924482
1.02233
1.02643
0.930813
0.74939
0.51395
0.26579
0.0448577
-0.120466
-0.219193
-0.257284
-0.252366
-0.2259
-0.196022
-0.173535
-0.161832
-0.159182
-0.161727
-0.165885
-0.169491
-0.171826
-0.172869
-0.172896
-0.172111
-0.170785
-0.169219
-0.167826
-0.166918
-0.166535
-0.166469
-0.166239
-0.165303
-0.163302
-0.160133
-0.156066
-0.151653
-0.147534
-0.144287
-0.142244
-0.14144
-0.141572
-0.14203
-0.142162
-0.141384
-0.139468
-0.136616
-0.13329
-0.130217
-0.127968
-0.126894
-0.126923
-0.127737
-0.128728
-0.129426
-0.129408
-0.128509
-0.126731
-0.124274
-0.12136
-0.118231
-0.115025
-0.111794
-0.108575
-0.105486
-0.102693
-0.100486
-0.0991883
-0.0990298
-0.100032
-0.101935
-0.10425
-0.106382
-0.107909
-0.108636
-0.108662
-0.108217
-0.10756
-0.106817
-0.105997
-0.10497
-0.103744
-0.102547
-0.101755
-0.101882
-0.103248
-0.10598
-0.109708
-0.113827
-0.117572
-0.120236
-0.121452
-0.121106
-0.119349
-0.116426
-0.112491
-0.107414
-0.100917
-0.0926765
-0.0824972
-0.0705575
-0.0573948
-0.0439303
-0.0311052
-0.0195919
-0.00969357
-0.00115825
0.0065361
0.0141085
0.0220863
0.0306487
0.0395353
0.0482615
0.0561352
0.0627293
0.0678181
0.0715806
0.0744302
0.0768718
0.079297
0.0818717
0.0844594
0.0867594
0.0883916
0.0891303
0.0890089
0.0881301
0.0866774
0.0849063
0.0829515
0.0809306
0.0791017
0.0777516
0.0772488
0.0777458
0.0791411
0.0810192
0.0826171
0.0832635
0.0823774
0.0797828
0.0758613
0.0712811
0.0669688
0.0637093
0.0620069
0.0619766
0.0634623
0.066016
0.0692832
0.0730537
0.0771309
0.0815905
0.0863033
0.090982
0.0952545
0.0985811
0.100589
0.101056
0.100005
0.0978874
0.0953812
0.0933589
0.0926541
0.0936799
0.0963326
0.099864
0.102966
0.104306
0.102767
0.0978324
0.08957
0.0785478
0.0655927
0.0517138
0.0377721
0.0245771
0.0127905
0.00262548
-0.0060526
-0.0138684
-0.0216763
-0.0300728
-0.0391203
-0.0481414
-0.0560672
-0.0620004
-0.0656959
-0.0677518
-0.0693669
-0.0717535
-0.0754955
-0.0802569
-0.0849241
-0.088169
-0.0890821
-0.0876054
-0.0844142
-0.0806501
-0.077362
-0.0751173
-0.0737921
-0.072978
-0.0722048
-0.0714445
-0.0712434
-0.0725975
-0.0767638
-0.0847056
-0.0970489
-0.114092
-0.135705
-0.161268
-0.189466
-0.217696
-0.241638
-0.255543
-0.252658
-0.226066
-0.169282
-0.0773822
0.0517915
0.215805
0.405423
0.603142
0.7837
0.917501
0.977518
0.947223
0.826803
0.635145
0.405663
0.17745
-0.0150114
-0.150314
-0.223492
-0.24391
-0.229315
-0.198914
-0.167663
-0.143948
-0.130164
-0.124737
-0.124505
-0.126549
-0.128967
-0.130915
-0.132306
-0.133356
-0.134272
-0.13512
-0.135686
-0.135508
-0.134232
-0.131744
-0.12831
-0.124544
-0.121258
-0.119003
-0.117934
-0.117728
-0.117692
-0.117077
-0.115445
-0.112767
-0.109512
-0.106399
-0.104172
-0.103343
-0.104075
-0.106056
-0.108792
-0.111646
-0.114078
-0.115731
-0.116478
-0.116291
-0.115248
-0.113418
-0.110893
-0.107853
-0.104523
-0.101357
-0.09879
-0.0973284
-0.0973012
-0.0987892
-0.101555
-0.105098
-0.108731
-0.111706
-0.113397
-0.113463
-0.111831
-0.108696
-0.104636
-0.100254
-0.0962361
-0.0930832
-0.0910061
-0.0900275
-0.0900103
-0.0908478
-0.0924191
-0.0948132
-0.098034
-0.10206
-0.106758
-0.111909
-0.117279
-0.12258
-0.127468
-0.131555
-0.134509
-0.136018
-0.136101
-0.135103
-0.133599
-0.13207
-0.130678
-0.129005
-0.126028
-0.120672
-0.11203
-0.0999652
-0.0852345
-0.0692102
-0.0535232
-0.039328
-0.027106
-0.0164177
-0.00636
0.00404268
0.0152633
0.0271437
0.038993
0.0500071
0.0595562
0.0675558
0.0744197
0.080628
0.0865206
0.0919751
0.0964541
0.0993131
0.100299
0.0996261
0.0982936
0.0975366
0.0984994
0.10172
0.106804
0.112403
0.116966
0.119002
0.117659
0.11309
0.106317
0.0988367
0.0921579
0.0873539
0.0847073
0.0839309
0.0843213
0.0850509
0.0854414
0.0851282
0.0838871
0.081656
0.0785626
0.0748054
0.0706578
0.066623
0.063156
0.0606984
0.059468
0.0592789
0.0596422
0.0599407
0.0593945
0.0575117
0.0541233
0.0494486
0.0440487
0.0387876
0.0343324
0.0310789
0.0290519
0.0277661
0.0267107
0.0254269
0.0237851
0.021938
0.0202307
0.018959
0.0181406
0.017612
0.017066
0.0163575
0.0155177
0.0148059
0.0144924
0.0146869
0.0152241
0.0158291
0.0162649
0.0163267
0.0161395
0.0159533
0.0161205
0.0167876
0.0179498
0.0193245
0.0205529
0.0212774
0.0211625
0.0200783
0.0180224
0.0151485
0.0118025
0.00837249
0.00528353
0.00283462
0.00120959
0.00037134
0.000174664
0.000401053
0.000715768
0.000866213
0.000629105
-0.000187347
-0.00162986
-0.00353856
-0.00562365
-0.00738552
-0.00841006
-0.00837511
-0.00721277
-0.00514877
-0.00267736
-0.000311192
0.00147194
0.00252592
0.0030279
0.00330326
0.00367691
0.00430152
0.00502513
0.00545149
0.00519486
0.00406013
0.00218972
8.26711e-5
-0.00156761
-0.00221157
-0.00157667
0.000293669
0.00290282
0.00573463
0.00826923
0.0101707
0.0113717
0.011914
0.0119945
0.0118072
0.0115051
0.0112015
0.0109881
0.0108972
0.0108637
0.0108016
0.0105873
0.0101655
0.00964148
0.00922098
0.00911105
0.0094975
0.0103013
0.0114216
0.0126573
0.0138197
0.014852
0.0157189
0.0164688
0.016984
0.017227
0.017021
0.0163194
0.0152179
0.0138623
0.0124752
0.0113191
0.0105706
0.0103921
0.0108413
0.0118317
0.0131216
0.0143885
0.0153124
0.0156292
0.0153106
0.0145367
0.0135433
0.0127475
0.0124169
0.0128276
0.0143158
0.017198
0.0217047
0.0279399
0.0357095
0.0443104
0.0529743
0.0608728
0.0675011
0.0729734
0.0777008
0.0823174
0.0872506
0.0924718
0.097492
0.101601
0.104125
0.104726
0.10342
0.100549
0.0965165
0.0916571
0.0863439
0.0809
0.0759014
0.0720865
0.0703201
0.0709688
0.0737404
0.0774258
0.0800648
0.0797184
0.0747866
0.0648486
0.0507173
0.0341394
0.0172922
0.00198166
-0.0106704
-0.0203186
-0.0273352
-0.0322558
-0.0356287
-0.0377577
-0.0387676
-0.0387461
-0.0377844
-0.0361114
-0.0342161
-0.0325822
-0.0316772
-0.0317876
-0.0330602
-0.0352536
-0.0380348
-0.0409855
-0.0436011
-0.045554
-0.046532
-0.0463697
-0.0451
-0.043051
-0.0408856
-0.0396812
-0.0411198
-0.0472221
-0.0597762
-0.0800446
-0.107674
-0.139881
-0.170922
-0.192043
-0.192374
-0.160103
-0.0845868
0.0408028
0.215613
0.429624
0.661432
0.879451
1.04703
1.13055
1.10876
0.980324
0.76614
0.504695
0.242121
0.0195507
-0.13718
-0.222149
-0.246867
-0.233095
-0.20391
-0.176562
-0.159466
-0.153396
-0.154685
-0.15891
-0.162776
-0.165014
-0.165823
-0.165866
-0.165714
-0.165556
-0.165482
-0.165336
-0.165007
-0.164344
-0.163176
-0.161353
-0.158883
-0.155771
-0.152187
-0.148461
-0.144856
-0.141675
-0.139093
-0.137108
-0.135574
-0.134215
-0.132743
-0.130953
-0.128913
-0.126745
-0.124737
-0.12319
-0.122182
-0.121689
-0.121495
-0.121319
-0.120887
-0.120127
-0.119028
-0.117741
-0.116374
-0.115103
-0.113913
-0.112766
-0.11167
-0.110508
-0.10945
-0.108482
-0.107731
-0.107162
-0.106642
-0.106022
-0.105173
-0.104098
-0.102845
-0.10163
-0.100657
-0.100013
-0.0997763
-0.0999232
-0.100365
-0.101094
-0.102131
-0.103536
-0.105274
-0.107245
-0.109273
-0.111089
-0.112578
-0.113729
-0.114636
-0.115552
-0.116555
-0.117721
-0.118828
-0.119684
-0.119985
-0.1194
-0.117591
-0.114136
-0.108557
-0.100294
-0.0889936
-0.0745796
-0.0575206
-0.0386671
-0.0191829
-0.000169881
0.0174677
0.0334464
0.0478085
0.0609818
0.0733806
0.0853394
0.0969174
0.107971
0.118281
0.127615
0.135788
0.142681
0.14819
0.152329
0.155132
0.156683
0.157149
0.156807
0.155935
0.154739
0.153486
0.152167
0.150786
0.149172
0.147132
0.14451
0.141275
0.137528
0.13358
0.129797
0.126594
0.124219
0.122767
0.122067
0.121828
0.12162
0.121028
0.119757
0.117719
0.115011
0.111865
0.108512
0.105118
0.101742
0.0983166
0.0947945
0.0911073
0.0872962
0.0834352
0.0796485
0.0760022
0.0724411
0.0688908
0.0652891
0.061657
0.0581475
0.0549597
0.0522513
0.0499753
0.047978
0.0458788
0.0433817
0.0402533
0.0365818
0.0326174
0.0287807
0.0253954
0.0226996
0.0206789
0.0191175
0.0177238
0.0161771
0.0141332
0.0114564
0.00811852
0.00424332
0.000135452
-0.00378445
-0.00702312
-0.00921796
-0.010228
-0.0102708
-0.00981253
-0.00952298
-0.00994173
-0.0112684
-0.0133208
-0.0155951
-0.0174965
-0.0186455
-0.0190265
-0.0188972
-0.0186994
-0.0187929
-0.0192798
-0.0201332
-0.0211517
-0.0221931
-0.0231255
-0.0239401
-0.0245012
-0.0246948
-0.0244446
-0.023693
-0.0226375
-0.0215877
-0.0208997
-0.0207167
-0.0208281
-0.0206337
-0.0192785
-0.0159803
-0.0102911
-0.00239379
0.00704898
0.0170125
0.0265261
0.0348527
0.0418119
0.0476648
0.0529105
0.0581123
0.0635812
0.069349
0.0750815
0.0802893
0.0843884
0.0869704
0.0878943
0.0872347
0.0854087
0.0828026
0.0797131
0.0761892
0.072024
0.0670186
0.0612833
0.0553914
0.0505478
0.0481918
0.0494143
0.0543623
0.0618564
0.0696447
0.0750199
0.0756286
0.0703265
0.0594122
0.0443487
0.0271969
0.0101035
-0.00533233
-0.0180944
-0.0278005
-0.0344508
-0.0383043
-0.0399877
-0.0402364
-0.0398885
-0.039713
-0.0401173
-0.0412434
-0.0428779
-0.0446771
-0.0463511
-0.0477074
-0.0487665
-0.0496623
-0.0503647
-0.0508536
-0.0510809
-0.0509737
-0.0507604
-0.0511959
-0.0537312
-0.0602943
-0.0730194
-0.0934599
-0.121865
-0.156273
-0.191843
-0.220812
-0.233138
-0.217711
-0.163674
-0.0625431
0.0889181
0.285985
0.513492
0.745323
0.946939
1.08176
1.12046
1.05014
0.879899
0.640098
0.374734
0.129231
-0.0616447
-0.181695
-0.234269
-0.237098
-0.213401
-0.18371
-0.160687
-0.148413
-0.144997
-0.146377
-0.148986
-0.150876
-0.151778
-0.152302
-0.152957
-0.153853
-0.15485
-0.155712
-0.156357
-0.156864
-0.157462
-0.158295
-0.159395
-0.160637
-0.161672
-0.162056
-0.161476
-0.15973
-0.156893
-0.153158
-0.148948
-0.14463
-0.140563
-0.136986
-0.134044
-0.131795
-0.13022
-0.129214
-0.128584
-0.127969
-0.127083
-0.125698
-0.123697
-0.12117
-0.118345
-0.115661
-0.113425
-0.111864
-0.111102
-0.111009
-0.1114
-0.112014
-0.112587
-0.112972
-0.113066
-0.11279
-0.11208
-0.110903
-0.109323
-0.107456
-0.105553
-0.10394
-0.102823
-0.102367
-0.102494
-0.103062
-0.103754
-0.104304
-0.104424
-0.104036
-0.103168
-0.10191
-0.100511
-0.0992392
-0.0983512
-0.0980467
-0.0983246
-0.0991122
-0.100279
-0.101645
-0.102968
-0.104095
-0.104824
-0.104951
-0.104162
-0.102056
-0.0981569
-0.0919766
-0.0832015
-0.0718201
-0.0582851
-0.0434105
-0.0282743
-0.0139163
-0.00106259
0.0100814
0.0197979
0.0287676
0.037623
0.046739
0.0561602
0.0655326
0.0743971
0.0823608
0.0892467
0.0950988
0.100103
0.104448
0.108262
0.111571
0.114276
0.11629
0.117539
0.118004
0.11767
0.116639
0.115016
0.113067
0.110976
0.109008
0.107287
0.105908
0.104841
0.103931
0.102974
0.101641
0.0996565
0.0969582
0.0936371
0.090022
0.086543
0.0835404
0.081114
0.0791473
0.0772504
0.0750324
0.0723091
0.0690669
0.0655415
0.0620532
0.0588318
0.0559836
0.0534194
0.0508378
0.0480078
0.0446562
0.040691
0.0361459
0.0312938
0.0264282
0.021929
0.0180664
0.0149813
0.0125361
0.010497
0.00848114
0.00619559
0.00349232
0.000529945
-0.00239176
-0.00481198
-0.00634472
-0.00678827
-0.00624212
-0.00503508
-0.00369361
-0.00267409
-0.00235134
-0.00285826
-0.004152
-0.00612924
-0.00853604
-0.0111661
-0.0137456
-0.0159894
-0.0175272
-0.0182083
-0.0179615
-0.0170485
-0.0159032
-0.0150657
-0.0148483
-0.0153106
-0.0161642
-0.0169978
-0.0173924
-0.017141
-0.0162567
-0.0149944
-0.0137311
-0.0128604
-0.012573
-0.012938
-0.0138215
-0.0148883
-0.0157522
-0.0159562
-0.0153571
-0.0139268
-0.0119626
-0.0099452
-0.00828385
-0.00712087
-0.00617022
-0.0048335
-0.00220375
0.00247471
0.00948543
0.0185764
0.028918
0.0393346
0.0488126
0.0567446
0.0630937
0.0682141
0.0727335
0.0771637
0.0817707
0.0865661
0.0913101
0.0957046
0.0994082
0.101942
0.10292
0.101947
0.0988663
0.0940013
0.0881891
0.0827613
0.0791033
0.0782174
0.0801993
0.0839791
0.0876969
0.0892015
0.0868492
0.080052
0.0693139
0.0559828
0.0416396
0.0276155
0.0145592
0.00259248
-0.00845589
-0.0186341
-0.027689
-0.0351725
-0.0406651
-0.0440208
-0.0455434
-0.0458491
-0.0458087
-0.046131
-0.0472425
-0.0491104
-0.0513973
-0.0535775
-0.0552856
-0.0563395
-0.0568117
-0.0567878
-0.0563524
-0.0555019
-0.0542614
-0.0527535
-0.0513734
-0.0510609
-0.053165
-0.0593981
-0.0714405
-0.0904867
-0.116707
-0.148748
-0.182987
-0.213363
-0.231506
-0.227428
-0.190311
-0.110478
0.0179586
0.193763
0.405692
0.631085
0.837502
0.988522
1.05254
1.01218
0.87071
0.652874
0.398867
0.153346
-0.0466465
-0.180459
-0.246534
-0.258691
-0.238497
-0.207076
-0.17926
-0.161674
-0.154474
-0.154394
-0.157636
-0.161462
-0.164585
-0.166776
-0.168202
-0.168892
-0.16876
-0.167848
-0.166183
-0.163901
-0.161105
-0.158015
-0.154686
-0.151256
-0.147767
-0.144299
-0.140938
-0.137746
-0.134796
-0.132236
-0.130173
-0.128736
-0.128002
-0.127939
-0.128296
-0.12863
-0.128434
-0.127286
-0.124941
-0.12138
-0.11678
-0.111531
-0.106159
-0.101073
-0.0966836
-0.0933489
-0.0913124
-0.0905787
-0.0909712
-0.0920741
-0.0933716
-0.0942878
-0.0944555
-0.0937935
-0.0924901
-0.0908739
-0.0894375
-0.0885478
-0.0883949
-0.0888531
-0.0896909
-0.090579
-0.0912184
-0.091429
-0.0911551
-0.0904748
-0.0895313
-0.0884473
-0.087303
-0.0861164
-0.0848717
-0.083564
-0.0822754
-0.0811436
-0.0804543
-0.0804875
-0.0814472
-0.08345
-0.0864083
-0.0900654
-0.0939832
-0.097685
-0.100511
-0.101868
-0.10113
-0.097875
-0.0918973
-0.083247
-0.0724107
-0.0600332
-0.0469253
-0.0339432
-0.0218667
-0.011277
-0.00249368
0.00447779
0.00992944
0.0144213
0.0187023
0.0233234
0.0288187
0.0354123
0.043072
0.0516155
0.0606611
0.0697625
0.078386
0.085988
0.0920421
0.0962219
0.0984747
0.0990014
0.0983487
0.0970996
0.0958431
0.0948254
0.0940344
0.0931828
0.0919781
0.0901556
0.0876997
0.0848389
0.0819283
0.0793096
0.0772332
0.0758639
0.0751102
0.0747506
0.0745152
0.0740879
0.0732159
0.0717402
0.0695297
0.0666271
0.0630971
0.0591468
0.0548782
0.0505608
0.0464048
0.0426214
0.0393446
0.0365862
0.034236
0.0321176
0.0300836
0.0280231
0.026022
0.0240561
0.0221656
0.0202651
0.0181888
0.0158018
0.0130288
0.010166
0.00764966
0.00593159
0.00533896
0.00580625
0.00686159
0.007754
0.00772918
0.00621438
0.00308275
-0.00138324
-0.00636006
-0.0110172
-0.0144812
-0.0162181
-0.0162086
-0.0147846
-0.0127717
-0.0109516
-0.00995282
-0.0100149
-0.0110084
-0.0124717
-0.0138554
-0.0147753
-0.0148941
-0.0142602
-0.0129725
-0.0111936
-0.00917075
-0.00727055
-0.00583794
-0.00518957
-0.00571991
-0.0076461
-0.0110181
-0.015494
-0.0205504
-0.0253327
-0.0290156
-0.0308516
-0.0303468
-0.0273671
-0.0219388
-0.014339
-0.00506883
0.00523901
0.0156788
0.0252493
0.033025
0.0385466
0.0419092
0.0439291
0.045796
0.0486314
0.0530252
0.0589407
0.065713
0.0722064
0.0774563
0.0808721
0.0824166
0.0823916
0.081198
0.0791357
0.0763511
0.0728362
0.0686311
0.0641393
0.0600252
0.0571567
0.0559861
0.0562502
0.0567839
0.055757
0.0512209
0.0419257
0.027738
0.00990479
-0.00929826
-0.0272364
-0.0415993
-0.0511769
-0.0559761
-0.0569774
-0.0557158
-0.0538316
-0.0524509
-0.0521063
-0.0526446
-0.0534973
-0.0540582
-0.0540567
-0.0535244
-0.052961
-0.0529214
-0.0539376
-0.0560586
-0.058827
-0.061481
-0.0631578
-0.0632903
-0.0618371
-0.0592825
-0.0566917
-0.0557305
-0.0581878
-0.0658996
-0.0803237
-0.102148
-0.13086
-0.163959
-0.196528
-0.221136
-0.228012
-0.205896
-0.143918
-0.0346337
0.122693
0.318616
0.532153
0.732318
0.883743
0.955248
0.928901
0.806374
0.609733
0.376118
0.147443
-0.041006
-0.168817
-0.233258
-0.246262
-0.227474
-0.196585
-0.167987
-0.148576
-0.13914
-0.136924
-0.138323
-0.140417
-0.141821
-0.142261
-0.142197
-0.142191
-0.142738
-0.143976
-0.145742
-0.147508
-0.148695
-0.148926
-0.148094
-0.146406
-0.144163
-0.141582
-0.138487
-0.134578
-0.129529
-0.12345
-0.117047
-0.111539
-0.108241
-0.108112
-0.11119
-0.116478
-0.122225
-0.126474
-0.127742
-0.125736
-0.121033
-0.115129
-0.10952
-0.105423
-0.103256
-0.102741
-0.103091
-0.103398
-0.103067
-0.101883
-0.100057
-0.0981224
-0.0966443
-0.0959582
-0.0960771
-0.0967486
-0.0973941
-0.0974967
-0.0967797
-0.095322
-0.0936812
-0.0925198
-0.0923493
-0.0933472
-0.095265
-0.0974093
-0.0990088
-0.0994154
-0.0983948
-0.0961094
-0.0930962
-0.0900882
-0.0879478
-0.0874227
-0.0889968
-0.0929269
-0.0990788
-0.106831
-0.11515
-0.122946
-0.129266
-0.133445
-0.13545
-0.135659
-0.134641
-0.132892
-0.130491
-0.127107
-0.121987
-0.114504
-0.104344
-0.0918096
-0.0778611
-0.0637277
-0.0504889
-0.0387266
-0.0283251
-0.0186798
-0.00894533
0.00142513
0.012528
0.0240342
0.0353707
0.0461569
0.0561521
0.0655458
0.0746341
0.0835854
0.0923897
0.100857
0.108637
0.115409
0.121001
0.125412
0.128742
0.131226
0.133174
0.134942
0.136956
0.139781
0.143925
0.14981
0.157576
0.166982
0.177285
0.187478
0.196351
0.202867
0.206683
0.208156
0.208531
0.209566
0.212904
0.219298
0.228139
0.237359
0.244055
0.245328
0.239326
0.225712
0.205776
0.181938
0.156915
0.133217
0.11256
0.0956988
0.0826653
0.0729028
0.0655368
0.0595068
0.0538749
0.0478736
0.0411337
0.0338203
0.0262623
0.0188666
0.0119067
0.00535577
-0.00110167
-0.00777318
-0.0147564
-0.0219011
-0.028751
-0.034753
-0.0394833
-0.0428049
-0.0449551
-0.0463648
-0.0474749
-0.0486678
-0.0500294
-0.0514222
-0.0525879
-0.0532542
-0.0533531
-0.0529533
-0.0523506
-0.0519
-0.0519422
-0.0526892
-0.0541919
-0.0562598
-0.0584551
-0.0602779
-0.0612064
-0.0609175
-0.0594822
-0.0575521
-0.0566324
-0.0589834
-0.0671941
-0.0835029
-0.108812
-0.141736
-0.177892
-0.209801
-0.227595
-0.220121
-0.176509
-0.0881818
0.048827
0.231132
0.445899
0.669879
0.871108
1.01435
1.06946
1.02042
0.871417
0.64742
0.388413
0.138619
-0.0652159
-0.202486
-0.271224
-0.284731
-0.264064
-0.229959
-0.197297
-0.173366
-0.159127
-0.152251
-0.14951
-0.14841
-0.147599
-0.146629
-0.145504
-0.144132
-0.142526
-0.140788
-0.138945
-0.137054
-0.134925
-0.132362
-0.129164
-0.125308
-0.120983
-0.116655
-0.112912
-0.110166
-0.108737
-0.108356
-0.108531
-0.108622
-0.108045
-0.106532
-0.104292
-0.101815
-0.099723
-0.0984869
-0.0982857
-0.0988868
-0.0998209
-0.100592
-0.100822
-0.100403
-0.0994005
-0.0980458
-0.09659
-0.0952519
-0.0942237
-0.0936372
-0.0936144
-0.0940661
-0.094842
-0.0956989
-0.0963091
-0.0965893
-0.0964747
-0.0960621
-0.0955327
-0.0949959
-0.0943773
-0.0935785
-0.0924578
-0.0909007
-0.0890519
-0.0871481
-0.0855176
-0.0845504
-0.0844401
-0.0851014
-0.0864169
-0.0879693
-0.0895056
-0.0908178
-0.0919516
-0.0930414
-0.0944246
-0.0963943
-0.0992143
-0.103098
-0.108002
-0.113659
-0.119609
-0.125068
-0.129141
-0.130761
-0.129063
-0.123319
-0.113347
-0.0994431
-0.0823361
-0.0632782
-0.0436386
-0.0247248
-0.00758611
0.00716336
0.0194418
0.0295128
0.0379318
0.0452875
0.0521812
0.0589814
0.0659763
0.0731917
0.0805444
0.0878285
0.0946583
0.100598
0.105269
0.108308
0.109789
0.109948
0.109332
0.108388
0.107539
0.106914
0.106431
0.105929
0.105251
0.104235
0.102924
0.101372
0.0995888
0.0975202
0.0950712
0.0921897
0.0889298
0.0854322
0.0819513
0.078743
0.0759633
0.0736673
0.0717584
0.0700255
0.0683532
0.0668195
0.0655357
0.0647865
0.0647508
0.0653774
0.0664299
0.0675042
0.0681539
0.0681333
0.0672682
0.0657477
0.0637685
0.0615507
0.0592816
0.0571021
0.0551375
0.0534503
0.0520271
0.0508577
0.0497351
0.0484628
0.0468133
0.0447168
0.0423113
0.039882
0.0377143
0.0358965
0.0343703
0.0328825
0.0311578
0.0291699
0.0270127
0.0249968
0.023547
0.0228347
0.0228575
0.0234094
0.0241627
0.0247291
0.024931
0.0246807
0.0240983
0.02342
0.0229218
0.0228348
0.0232438
0.0240212
0.0249017
0.0254524
0.0253172
0.0243059
0.0223958
0.0198362
0.0170229
0.0143338
0.0120408
0.0102068
0.00875765
0.00745208
0.00602421
0.00436744
0.00254289
0.000778336
-0.00068056
-0.00148715
-0.00151272
-0.000728668
0.000692816
0.00245923
0.00424774
0.00568833
0.00662942
0.00702444
0.00695349
0.00662772
0.00622384
0.00582451
0.00549285
0.00513829
0.0047252
0.00422838
0.00370444
0.00314552
0.00251905
0.00167331
0.000415209
-0.00143396
-0.00382692
-0.00663813
-0.00937785
-0.0116575
-0.0131097
-0.0135757
-0.0132104
-0.0122403
-0.0109767
-0.00952686
-0.00794751
-0.00620111
-0.00425343
-0.00220507
-0.000267314
0.00137735
0.00246468
0.0029589
0.00285948
0.00232199
0.00151209
0.000740044
0.000212427
0.00013431
0.000577681
0.00143684
0.00241838
0.00328659
0.00366323
0.00338459
0.00245672
0.000955561
-0.000866743
-0.00281024
-0.00468572
-0.00639775
-0.00780721
-0.00884885
-0.00940349
-0.00939135
-0.0087369
-0.0075204
-0.00583326
-0.00393486
-0.00205931
-0.000372549
0.00108324
0.00241097
0.00389875
0.00592466
0.00888274
0.0129923
0.0183847
0.0248084
0.0318753
0.0390926
0.0459558
0.0521681
0.05756
0.0620859
0.0657949
0.0687126
0.0708275
0.0723508
0.0735716
0.0749268
0.0767139
0.0790645
0.0816497
0.0839374
0.0852273
0.0850962
0.0834647
0.080789
0.0778805
0.075639
0.0747554
0.075673
0.0783758
0.0823754
0.0867758
0.0902511
0.0914128
0.0890466
0.0824183
0.0715908
0.0572535
0.0406853
0.0233916
0.00663325
-0.00860685
-0.0218015
-0.032642
-0.0410038
-0.046843
-0.0502664
-0.051669
-0.05176
-0.0513328
-0.0512501
-0.0520465
-0.0538921
-0.0565266
-0.0593066
-0.0616199
-0.0629073
-0.0630102
-0.0619603
-0.0601483
-0.0580773
-0.056096
-0.0543721
-0.0528452
-0.0514249
-0.0501275
-0.0492197
-0.0494834
-0.0522003
-0.0591202
-0.0719861
-0.0920057
-0.119297
-0.152212
-0.186787
-0.216752
-0.233781
-0.228614
-0.191963
-0.115731
0.00534807
0.171759
0.376813
0.604953
0.831207
1.0236
1.14865
1.17943
1.10392
0.930245
0.68655
0.414363
0.157855
-0.0477562
-0.184082
-0.251596
-0.26562
-0.248399
-0.221084
-0.197927
-0.184847
-0.181181
-0.183175
-0.186801
-0.189467
-0.190398
-0.189954
-0.188848
-0.187623
-0.186536
-0.185679
-0.18509
-0.184775
-0.184506
-0.184122
-0.183278
-0.181752
-0.179426
-0.176425
-0.173066
-0.169835
-0.167138
-0.16519
-0.164118
-0.163739
-0.163762
-0.163843
-0.16359
-0.162635
-0.160773
-0.158041
-0.154613
-0.150895
-0.147397
-0.14441
-0.142003
-0.140041
-0.138217
-0.136199
-0.133939
-0.131504
-0.129106
-0.127024
-0.125342
-0.124084
-0.123148
-0.122435
-0.121888
-0.121527
-0.121299
-0.121212
-0.121206
-0.121243
-0.121317
-0.121501
-0.121797
-0.122135
-0.122327
-0.122158
-0.121419
-0.120158
-0.118643
-0.117185
-0.11608
-0.115372
-0.114808
-0.114021
-0.11267
-0.110701
-0.108427
-0.106314
-0.104906
-0.104495
-0.105049
-0.106206
-0.107438
-0.108092
-0.107648
-0.105623
-0.101655
-0.0954758
-0.0870049
-0.0763783
-0.0640686
-0.0509632
-0.0381964
-0.026987
-0.0183122
-0.0126491
-0.00983607
-0.00916065
-0.00944429
-0.00948117
-0.0082516
-0.00505277
0.000225684
0.00734111
0.0158209
0.0251439
0.0349208
0.044954
0.0551001
0.0653056
0.0754156
0.0852349
0.0944669
0.102932
0.110554
0.117323
0.123292
0.128432
0.132575
0.135453
0.136842
0.136627
0.134927
0.13219
0.128937
0.125849
0.12338
0.121682
0.120734
0.120257
0.119934
0.119572
0.119133
0.11865
0.118228
0.117814
0.117313
0.116442
0.115074
0.11321
0.110964
0.108595
0.106291
0.104162
0.102135
0.100042
0.0976964
0.0950755
0.0922344
0.0893821
0.0867276
0.0843428
0.0821493
0.0798924
0.0772398
0.0739674
0.0699427
0.0653152
0.0603361
0.0553867
0.0509087
0.0471829
0.0443583
0.0424191
0.0412109
0.0404203
0.0397474
0.0389626
0.0378283
0.0362257
0.0340533
0.0313381
0.0280708
0.024373
0.0204451
0.0164854
0.012758
0.00943579
0.00656332
0.00409521
0.00193981
-0.000144071
-0.00224931
-0.00448099
-0.00688988
-0.00934771
-0.0118774
-0.014448
-0.0170224
-0.0195409
-0.0218706
-0.0237494
-0.0248904
-0.0251319
-0.0244664
-0.0231659
-0.021701
-0.0205784
-0.020129
-0.0205361
-0.0216141
-0.0230327
-0.0244628
-0.0255557
-0.0261286
-0.0260948
-0.025517
-0.0244894
-0.0232601
-0.0221566
-0.0214448
-0.0214773
-0.0222874
-0.0237101
-0.0254474
-0.027059
-0.0281348
-0.028472
-0.0279773
-0.0267715
-0.0249973
-0.0228445
-0.0204309
-0.0179032
-0.0154395
-0.0131591
-0.0111732
-0.00931274
-0.00717382
-0.00425215
3.61415e-5
0.00604414
0.0137799
0.0228042
0.0324261
0.0417837
0.0502211
0.0575023
0.0638241
0.0696613
0.0755906
0.0818786
0.0882479
0.0940252
0.0982093
0.0999529
0.0988773
0.0952771
0.0899483
0.0839869
0.0783556
0.0736453
0.0702416
0.0682437
0.0677481
0.0689715
0.071934
0.076191
0.080618
0.08364
0.0834777
0.0788601
0.0694411
0.0560185
0.0401936
0.0238894
0.0087171
-0.00432609
-0.0148881
-0.0231659
-0.0295511
-0.0343754
-0.0380287
-0.0409015
-0.0433961
-0.0458684
-0.0485954
-0.0515926
-0.0547722
-0.0577734
-0.060188
-0.0617119
-0.0621589
-0.0615287
-0.0598891
-0.0575158
-0.054833
-0.0525028
-0.0514701
-0.0528323
-0.0575795
-0.0664088
-0.0794815
-0.0965468
-0.117261
-0.141062
-0.167171
-0.194197
-0.219467
-0.238715
-0.246523
-0.237193
-0.205566
-0.147608
-0.0603544
0.0581449
0.208234
0.386682
0.584269
0.783353
0.957979
1.07767
1.11505
1.05464
0.89986
0.67427
0.416256
0.16879
-0.0323264
-0.167227
-0.234575
-0.248397
-0.2304
-0.201645
-0.176775
-0.162275
-0.157814
-0.159685
-0.163676
-0.166937
-0.168311
-0.168059
-0.166995
-0.165837
-0.165059
-0.164759
-0.164805
-0.164825
-0.164579
-0.163731
-0.162208
-0.160084
-0.157482
-0.154581
-0.151432
-0.148033
-0.144439
-0.140731
-0.137064
-0.133753
-0.131052
-0.129117
-0.128019
-0.127608
-0.127611
-0.127661
-0.127463
-0.126837
-0.12574
-0.124161
-0.122197
-0.11998
-0.117673
-0.115546
-0.113779
-0.112585
-0.112003
-0.111928
-0.112167
-0.112372
-0.112253
-0.111594
-0.110282
-0.108423
-0.106291
-0.104149
-0.102369
-0.101192
-0.100743
-0.101005
-0.101786
-0.102942
-0.104315
-0.105733
-0.10705
-0.108145
-0.108948
-0.109336
-0.109251
-0.108698
-0.107775
-0.106671
-0.105638
-0.104998
-0.104993
-0.105718
-0.107116
-0.108906
-0.11074
-0.11216
-0.112845
-0.112559
-0.111121
-0.108387
-0.103964
-0.0974104
-0.0884385
-0.0769122
-0.0632446
-0.048339
-0.0335099
-0.0201037
-0.00914574
-0.000939117
0.00495581
0.0095558
0.0141534
0.0198753
0.027292
0.0363788
0.0465643
0.0569958
0.0668081
0.0754452
0.0826976
0.0887151
0.0939056
0.098592
0.103015
0.107187
0.110836
0.11357
0.115013
0.114874
0.113236
0.110412
0.106934
0.103411
0.100396
0.097997
0.0960175
0.0940438
0.0916702
0.0887532
0.0854738
0.0822375
0.0795421
0.0775858
0.0762275
0.0750476
0.0735394
0.0713144
0.0683461
0.065045
0.0619178
0.0595444
0.058227
0.0579186
0.0582991
0.0589118
0.0591299
0.0585679
0.0569921
0.0544103
0.0509572
0.0469523
0.0427564
0.038719
0.035029
0.0316431
0.0283269
0.024804
0.0207927
0.0162601
0.0113968
0.00649312
0.0018054
-0.00252429
-0.00649962
-0.0100225
-0.0129139
-0.0148297
-0.0153526
-0.0142814
-0.0118709
-0.00883837
-0.00602402
-0.00432247
-0.00414376
-0.00541201
-0.00757064
-0.00989388
-0.0117518
-0.0129134
-0.0134205
-0.0135492
-0.0135754
-0.0136817
-0.013989
-0.0145579
-0.0154349
-0.0167785
-0.0186039
-0.0207217
-0.0227074
-0.0241467
-0.0245919
-0.0238989
-0.0223764
-0.0207351
-0.0196418
-0.0196563
-0.0210043
-0.0233658
-0.0261521
-0.0286668
-0.0304115
-0.0311936
-0.031223
-0.0308204
-0.0303356
-0.0298986
-0.0293447
-0.0283866
-0.0267214
-0.0242871
-0.021377
-0.018443
-0.0159533
-0.0142183
-0.0130692
-0.0120167
-0.0104069
-0.00768031
-0.00363108
0.00162038
0.00756213
0.0136235
0.0193496
0.0245088
0.0291823
0.0336151
0.0382111
0.0433679
0.0493658
0.0563246
0.0640611
0.0720286
0.0793633
0.0851386
0.0885307
0.0891335
0.0870732
0.0827998
0.0771741
0.0710813
0.06544
0.0610707
0.0584996
0.0577255
0.0581396
0.0584714
0.0570324
0.0522885
0.0432498
0.0299183
0.0133112
-0.00474498
-0.0222069
-0.0373676
-0.0490346
-0.0569196
-0.0613699
-0.0631957
-0.0633941
-0.0628768
-0.0622631
-0.0617324
-0.0611832
-0.0603695
-0.0593484
-0.0582984
-0.0576171
-0.0577265
-0.0586575
-0.0601096
-0.0613946
-0.0617099
-0.0604773
-0.0577597
-0.0540597
-0.0503467
-0.0475778
-0.0468359
-0.0490576
-0.0552234
-0.0663446
-0.0833434
-0.106769
-0.136111
-0.169093
-0.201047
-0.224559
-0.230007
-0.20624
-0.142387
-0.03073
0.129637
0.329676
0.548657
0.755491
0.914291
0.992742
0.971422
0.85055
0.651273
0.410572
0.171251
-0.0298806
-0.170575
-0.24656
-0.26864
-0.256201
-0.229223
-0.202735
-0.184402
-0.175432
-0.173223
-0.174077
-0.174827
-0.173678
-0.170182
-0.164859
-0.158683
-0.152933
-0.14865
-0.146338
-0.145807
-0.146172
-0.146232
-0.144871
-0.141393
-0.135749
-0.128661
-0.121279
-0.11491
-0.110707
-0.109358
-0.110837
-0.114673
-0.119794
-0.125118
-0.129658
-0.132917
-0.134942
-0.136043
-0.136639
-0.136982
-0.137061
-0.136603
-0.135273
-0.13285
-0.129312
-0.124753
-0.119437
-0.113602
-0.107565
-0.101777
-0.0968902
-0.0936161
-0.0925721
-0.0939516
-0.097312
-0.101795
-0.106261
-0.109688
-0.111619
-0.112114
-0.111689
-0.111
-0.110417
-0.10986
-0.108906
-0.107026
-0.103901
-0.0998935
-0.0958014
-0.0928318
-0.0919764
-0.093623
-0.0973531
-0.102097
-0.106471
-0.109418
-0.110391
-0.109625
-0.107928
-0.106413
-0.106124
-0.107709
-0.111388
-0.116849
-0.123273
-0.129507
-0.134206
-0.136039
-0.133956
-0.127493
-0.116824
-0.102707
-0.0863412
-0.0689607
-0.0518026
-0.0356475
-0.0208227
-0.00733948
0.00513251
0.0170316
0.0286173
0.0401067
0.0514943
0.0624555
0.0726835
0.0818057
0.0895469
0.0957666
0.100444
0.103663
0.105526
0.106333
0.106477
0.106566
0.107077
0.108336
0.110349
0.112742
0.11489
0.116221
0.116446
0.115593
0.11391
0.111783
0.109471
0.107097
0.104707
0.102352
0.100012
0.0977961
0.0955509
0.092967
0.0896572
0.0852732
0.079835
0.0738518
0.0682802
0.064342
0.0630654
0.0647848
0.0691386
0.0749799
0.0808144
0.0852004
0.0872238
0.0865664
0.0834408
0.0784498
0.0722166
0.0653731
0.0583763
0.0515556
0.0452049
0.0396694
0.0352965
0.0323268
0.0308703
0.0308151
0.0317204
0.0329834
0.0338716
0.0337372
0.0322938
0.0295666
0.0258962
0.0218514
0.0179187
0.0143787
0.0112719
0.00845088
0.00576812
0.00319879
0.00100028
-0.000419348
-0.000536237
0.000849915
0.00356028
0.00696796
0.0102072
0.0124109
0.0130461
0.0121048
0.0101364
0.00792777
0.00614046
0.00508709
0.00456854
0.00407987
0.00308066
0.00113278
-0.00177933
-0.00526047
-0.00868225
-0.0114281
-0.0131653
-0.0138914
-0.0138871
-0.0135183
-0.0130711
-0.0126955
-0.0123715
-0.011946
-0.0112392
-0.0099684
-0.00788328
-0.00472642
-0.000333219
0.00526699
0.0116712
0.0181204
0.0238716
0.0282622
0.0312053
0.0331184
0.0348727
0.037455
0.0416316
0.0474562
0.0544343
0.0616522
0.0681205
0.0731494
0.0764648
0.0782453
0.0788998
0.0788534
0.0783029
0.0771856
0.075305
0.0724143
0.068692
0.0646834
0.0612348
0.0590106
0.0581318
0.0578839
0.0567257
0.0529024
0.0450031
0.0327213
0.0170424
0.000135042
-0.0155383
-0.0278101
-0.0355529
-0.0388441
-0.0386919
-0.0365569
-0.0338205
-0.0314652
-0.0299844
-0.0293987
-0.0294718
-0.0299838
-0.0308587
-0.0319742
-0.0333343
-0.0348331
-0.036345
-0.0376149
-0.0385155
-0.0390158
-0.0392439
-0.0397459
-0.041455
-0.0456696
-0.05391
-0.0676278
-0.0877429
-0.114028
-0.144308
-0.173936
-0.195571
-0.199514
-0.174463
-0.109164
0.00484614
0.169705
0.377832
0.609851
0.835269
1.017
1.11969
1.1194
1.0113
0.812526
0.558448
0.293475
0.0591101
-0.116028
-0.221382
-0.263457
-0.259987
-0.23227
-0.198403
-0.169759
-0.150735
-0.140902
-0.137501
-0.137419
-0.138335
-0.138949
-0.138805
-0.137792
-0.135905
-0.133364
-0.130505
-0.127626
-0.124858
-0.122395
-0.120299
-0.11856
-0.117147
-0.115983
-0.114969
-0.113941
-0.112671
-0.110953
-0.108771
-0.106227
-0.10355
-0.101002
-0.0988548
-0.0972097
-0.0959898
-0.0950407
-0.0941137
-0.0930822
-0.0917944
-0.0901261
-0.0881444
-0.0859395
-0.0836252
-0.0814342
-0.0795851
-0.0781747
-0.077257
-0.0768428
-0.0769026
-0.0774643
-0.0785018
-0.0798806
-0.0814028
-0.0827769
-0.0836359
-0.0837211
-0.0830327
-0.0817312
-0.0800577
-0.0782394
-0.076472
-0.0746998
-0.0728563
-0.0708929
-0.0689926
-0.06754
-0.0668877
-0.0673854
-0.0690926
-0.0717028
-0.0747272
-0.0776743
-0.0802644
-0.0825313
-0.0848127
-0.0875687
-0.091201
-0.0958549
-0.101412
-0.107369
-0.113189
-0.11822
-0.121797
-0.123265
-0.122112
-0.11788
-0.110211
-0.0989874
-0.0844777
-0.0673227
-0.0484338
-0.0289259
-0.0098766
0.00799556
0.0243625
0.039243
0.0528537
0.0654057
0.076966
0.0874543
0.0967094
0.104734
0.11171
0.117848
0.123463
0.128618
0.133255
0.13715
0.140136
0.142119
0.143176
0.143599
0.143625
0.143397
0.143067
0.142584
0.141889
0.140978
0.139869
0.138655
0.137301
0.135862
0.134308
0.132516
0.130446
0.128028
0.125321
0.122414
0.119474
0.116705
0.114116
0.111669
0.10922
0.106505
0.103308
0.0995699
0.0953715
0.0907946
0.0860672
0.0813691
0.0768994
0.0729184
0.0697816
0.0677248
0.0669425
0.0672166
0.0681314
0.0690363
0.0692703
0.0684281
0.0663916
0.0633952
0.0598577
0.0562517
0.0528311
0.0496366
0.0465585
0.0433592
0.0399067
0.0363314
0.0329546
0.0302134
0.0284892
0.0279614
0.0285002
0.0296883
0.0310382
0.0320769
0.0325307
0.0325242
0.0322266
0.0319393
0.0317832
0.0316852
0.0312641
0.0301748
0.0281482
0.0252519
0.0218295
0.0183792
0.0154084
0.013172
0.0116503
0.0106771
0.00990275
0.00905026
0.00793966
0.00641094
0.00438015
0.00182304
-0.00117197
-0.00425416
-0.00696719
-0.00870276
-0.00903684
-0.00789297
-0.00556774
-0.002767
-0.000219534
0.00136934
0.0017748
0.00114438
-4.81914e-5
-0.0012782
-0.00204145
-0.00202658
-0.00104009
0.00107407
0.00458128
0.00960395
0.0162403
0.0242903
0.0332055
0.0423143
0.0509183
0.0585494
0.0650798
0.0708346
0.0762509
0.0817828
0.0876766
0.093798
0.0995404
0.104103
0.10664
0.106703
0.104262
0.0998056
0.0941924
0.088354
0.0830414
0.0787167
0.0755457
0.073627
0.073019
0.0736925
0.0752895
0.0769548
0.0773305
0.0748404
0.0682569
0.0571975
0.0422657
0.0250374
0.00759921
-0.00811235
-0.0207925
-0.029981
-0.0359163
-0.0392892
-0.0409243
-0.0416962
-0.0422834
-0.0431872
-0.0447013
-0.0468679
-0.0495304
-0.0524487
-0.0552963
-0.0578167
-0.0598404
-0.0610325
-0.0610828
-0.0597712
-0.0569909
-0.0530469
-0.0487338
-0.0455815
-0.0455393
-0.0508908
-0.0635926
-0.0849378
-0.114711
-0.150402
-0.186506
-0.214365
-0.222295
-0.19661
-0.123937
0.00508357
0.191368
0.423326
0.674917
0.907862
1.07889
1.15088
1.10428
0.944521
0.7021
0.42436
0.162143
-0.0445122
-0.175805
-0.233982
-0.237733
-0.212475
-0.181031
-0.157491
-0.146333
-0.145356
-0.1497
-0.154991
-0.158941
-0.161147
-0.162317
-0.163169
-0.164068
-0.164916
-0.165481
-0.165578
-0.165192
-0.164513
-0.163724
-0.163069
-0.162689
-0.162462
-0.16212
-0.161357
-0.159876
-0.157541
-0.154444
-0.15091
-0.147238
-0.143718
-0.140481
-0.137413
-0.134407
-0.131399
-0.128461
-0.125882
-0.124101
-0.123431
-0.123846
-0.124965
-0.126128
-0.126658
-0.12613
-0.124454
-0.121991
-0.119264
-0.116617
-0.114196
-0.112009
-0.109859
-0.107674
-0.105538
-0.103604
-0.101992
-0.10069
-0.0995229
-0.0982259
-0.0966455
-0.0947927
-0.0929617
-0.0915671
-0.091154
-0.0919636
-0.0941891
-0.0976812
-0.102174
-0.107189
-0.112214
-0.116606
-0.119866
-0.121647
-0.121754
-0.120359
-0.117885
-0.114943
-0.11213
-0.110042
-0.109034
-0.109201
-0.110335
-0.111922
-0.11298
-0.112366
-0.108894
-0.101604
-0.0900212
-0.0744238
-0.0556715
-0.035276
-0.0148096
0.00424546
0.0209952
0.0350785
0.0468263
0.0568575
0.0658791
0.0744675
0.0828385
0.0909308
0.0984969
0.105284
0.111074
0.115834
0.11954
0.122152
0.123676
0.124236
0.123881
0.12283
0.121322
0.119545
0.117555
0.115338
0.112746
0.109773
0.106432
0.102933
0.0995612
0.0965793
0.0941031
0.0919724
0.0899351
0.0876611
0.0849864
0.0819049
0.0786379
0.0755527
0.0729189
0.0708132
0.0691742
0.0677865
0.0663801
0.0647331
0.0628016
0.0606076
0.0582493
0.0558259
0.0533976
0.0509173
0.0483748
0.0455962
0.0426388
0.0395881
0.0365473
0.0337562
0.0313101
0.0292217
0.0272932
0.0252694
0.0228809
0.0200582
0.016879
0.0135532
0.0104391
0.00773748
0.00544086
0.00346357
0.00163558
-0.000171841
-0.00185347
-0.00317871
-0.00396169
-0.00409639
-0.00366605
-0.00299712
-0.00251767
-0.00245177
-0.00301511
-0.00410475
-0.00548671
-0.00697729
-0.00835047
-0.0096145
-0.0108226
-0.012097
-0.0135384
-0.0152322
-0.0170913
-0.0190698
-0.0211073
-0.0231569
-0.0251527
-0.027055
-0.0287064
-0.0297953
-0.0300365
-0.0291867
-0.027153
-0.024121
-0.0205182
-0.0168797
-0.0137536
-0.0115284
-0.0103198
-0.0101183
-0.0105705
-0.0112278
-0.011648
-0.0112568
-0.00960495
-0.00634356
-0.00123161
0.00564794
0.0138521
0.0227105
0.0314007
0.0392497
0.0459197
0.0515877
0.0568462
0.0623717
0.068636
0.075643
0.0829168
0.0894894
0.0944207
0.0970323
0.0971575
0.094999
0.0911188
0.0862648
0.0810149
0.076096
0.0721984
0.0700274
0.0701805
0.072752
0.0769857
0.0813238
0.0837621
0.0823714
0.075998
0.0646986
0.0496526
0.0328381
0.0162291
0.00134943
-0.0110723
-0.0209599
-0.0286041
-0.0340985
-0.0375537
-0.0390455
-0.0387147
-0.0370485
-0.0348859
-0.0331845
-0.032681
-0.0337543
-0.0362247
-0.0394818
-0.0427849
-0.0454454
-0.0469792
-0.047188
-0.0462491
-0.0445091
-0.0425651
-0.0413138
-0.0419766
-0.0462461
-0.0559314
-0.0725855
-0.0969735
-0.128383
-0.163739
-0.197238
-0.220316
-0.222224
-0.191227
-0.116496
0.00915775
0.185897
0.404075
0.642394
0.869361
1.04799
1.14394
1.13458
1.01648
0.807773
0.544545
0.271585
0.0308815
-0.14838
-0.255043
-0.295422
-0.287709
-0.254377
-0.215169
-0.182914
-0.162876
-0.154594
-0.154536
-0.158403
-0.162885
-0.166107
-0.167488
-0.1671
-0.1655
-0.163161
-0.160459
-0.157749
-0.155139
-0.152597
-0.150077
-0.14761
-0.145256
-0.143175
-0.14143
-0.140045
-0.139022
-0.138197
-0.137457
-0.136836
-0.136336
-0.135955
-0.135641
-0.135208
-0.134524
-0.133493
-0.132164
-0.130665
-0.129076
-0.127413
-0.125514
-0.123137
-0.120168
-0.11661
-0.112868
-0.109474
-0.107032
-0.105848
-0.105993
-0.107112
-0.108782
-0.110572
-0.112047
-0.113071
-0.113533
-0.113376
-0.112624
-0.111286
-0.109535
-0.107706
-0.10607
-0.104899
-0.104349
-0.104321
-0.104573
-0.104876
-0.104937
-0.104631
-0.103918
-0.102872
-0.101672
-0.10057
-0.0998425
-0.0997417
-0.100481
-0.102198
-0.104861
-0.108308
-0.112352
-0.116503
-0.120291
-0.123073
-0.124169
-0.122986
-0.119011
-0.111915
-0.101757
-0.0888249
-0.0736495
-0.056959
-0.0396343
-0.022543
-0.00649246
0.00788482
0.0201811
0.0302957
0.0384533
0.0450346
0.0505389
0.0553868
0.0599416
0.0644865
0.0691922
0.0742355
0.0796859
0.0854503
0.0912513
0.0966793
0.101295
0.104806
0.107075
0.108229
0.108601
0.108449
0.108062
0.107528
0.106897
0.106207
0.10545
0.104689
0.103935
0.103242
0.102626
0.102127
0.101796
0.101603
0.101494
0.101204
0.100403
0.0986986
0.095808
0.0916625
0.086559
0.0810004
0.0756794
0.0711069
0.0676558
0.065332
0.0639845
0.0633493
0.0631546
0.0632017
0.063294
0.0632748
0.0630535
0.062451
0.06139
0.0598711
0.0579411
0.0556511
0.0530975
0.0503043
0.0472425
0.0439726
0.0405647
0.0370812
0.0335924
0.0301472
0.0266408
0.0229915
0.0191251
0.0151661
0.0113625
0.00807934
0.00562512
0.00413532
0.00344605
0.00323273
0.00314138
0.00289439
0.00234463
0.00154601
0.000625102
-0.000258225
-0.00100093
-0.00141256
-0.00138677
-0.000815947
0.000264331
0.00156904
0.00263965
0.00292179
0.00198725
-0.000263617
-0.00352592
-0.0071016
-0.0102861
-0.0125305
-0.0136475
-0.0138897
-0.0137283
-0.0136057
-0.0137255
-0.0139504
-0.0139916
-0.0134587
-0.0122654
-0.0105572
-0.00870475
-0.00719232
-0.00621544
-0.00580329
-0.00567995
-0.00551067
-0.0049942
-0.00396866
-0.00244501
-0.00041359
0.00227572
0.00590963
0.0107798
0.0168969
0.0239524
0.0311773
0.0375731
0.0423901
0.0454468
0.0472039
0.0486954
0.0510076
0.0550484
0.0610484
0.0686056
0.0767675
0.0843197
0.0901812
0.0935159
0.0940207
0.0917549
0.0872533
0.0813391
0.0750159
0.0693319
0.0652288
0.063539
0.0647143
0.0687012
0.0746842
0.0810706
0.0856941
0.0864513
0.0816782
0.0707985
0.0545107
0.0345413
0.0132416
-0.00700206
-0.0243303
-0.0376008
-0.0465338
-0.0514753
-0.0532461
-0.0528889
-0.0515776
-0.0503174
-0.0498481
-0.0505258
-0.0523441
-0.0550091
-0.0579512
-0.0606372
-0.0626418
-0.0637403
-0.0639089
-0.0633821
-0.0626373
-0.0622325
-0.0624733
-0.0634445
-0.0648507
-0.0661269
-0.0667816
-0.0667766
-0.0669735
-0.0692693
-0.0760934
-0.0898012
-0.111751
-0.141526
-0.176213
-0.210482
-0.236864
-0.246504
-0.229964
-0.1781
-0.083615
0.056521
0.238255
0.447859
0.661007
0.845371
0.966994
0.998988
0.930189
0.770095
0.547641
0.30362
0.0795092
-0.0936559
-0.201846
-0.248498
-0.249644
-0.22609
-0.196193
-0.171502
-0.156262
-0.149411
-0.147626
-0.147777
-0.147824
-0.147049
-0.145558
-0.1436
-0.141424
-0.139154
-0.136866
-0.134624
-0.132571
-0.130844
-0.129519
-0.12859
-0.12801
-0.127618
-0.127299
-0.126953
-0.126481
-0.125941
-0.125449
-0.125102
-0.124913
-0.124699
-0.124129
-0.122823
-0.120516
-0.117076
-0.112763
-0.107994
-0.103413
-0.0996123
-0.0970071
-0.0957649
-0.0956797
-0.0962904
-0.097058
-0.0974431
-0.0971878
-0.0964014
-0.0954917
-0.0951331
-0.0959289
-0.0981575
-0.101598
-0.105545
-0.109069
-0.111219
-0.111411
-0.109476
-0.105792
-0.101016
-0.096005
-0.0914466
-0.0878652
-0.0855042
-0.0842741
-0.0838871
-0.0838956
-0.0837965
-0.0831834
-0.0820144
-0.0804608
-0.0792489
-0.0791201
-0.080754
-0.0844341
-0.0899599
-0.0965998
-0.103371
-0.109468
-0.11434
-0.117914
-0.120474
-0.122245
-0.123222
-0.123031
-0.120873
-0.115932
-0.107799
-0.0965504
-0.0829792
-0.0682679
-0.053654
-0.0401031
-0.0280883
-0.0175634
-0.0080755
0.000842104
0.00985714
0.0193201
0.0294045
0.0399227
0.050388
0.0601753
0.068601
0.0752445
0.080009
0.0832011
0.0854212
0.0871469
0.0886629
0.0899581
0.0906926
0.0905654
0.0894729
0.087603
0.085473
0.0836748
0.0825896
0.0822886
0.0825374
0.0828388
0.0827995
0.0822683
0.0813391
0.0804024
0.0797635
0.0795997
0.0798575
0.0800759
0.0797312
0.0784419
0.0760255
0.0726711
0.0687742
0.0647416
0.0607488
0.0568121
0.0526831
0.0481769
0.0432905
0.038327
0.0339333
0.0307101
0.0290899
0.0290208
0.0299234
0.0310209
0.0314843
0.0308929
0.0292475
0.0269286
0.0245561
0.0225559
0.0210362
0.0199369
0.0190764
0.0182546
0.0175189
0.016991
0.0166762
0.016448
0.0159807
0.0147959
0.0126994
0.00975427
0.00635509
0.00311364
0.000449354
-0.00129283
-0.00220608
-0.00262484
-0.00300471
-0.00385407
-0.00541435
-0.00771446
-0.0104226
-0.0129715
-0.0148162
-0.015582
-0.0152171
-0.0141591
-0.0130143
-0.0123664
-0.0125969
-0.0136764
-0.0153207
-0.0171112
-0.0187485
-0.0200945
-0.0213667
-0.0228424
-0.0248462
-0.0274588
-0.0303088
-0.0329163
-0.0345466
-0.0345523
-0.0326733
-0.0289578
-0.0238895
-0.0179635
-0.0114806
-0.00445738
0.00328938
0.0119227
0.021282
0.0307983
0.0394837
0.0464251
0.0511549
0.0538096
0.0552362
0.0565352
0.0587113
0.0623192
0.0673477
0.0732067
0.0791615
0.0843752
0.0879922
0.0892936
0.0876477
0.0825725
0.0741627
0.063069
0.0508271
0.0395432
0.0314861
0.0282875
0.0304242
0.0368352
0.0450937
0.052082
0.0548862
0.0516421
0.0420432
0.027453
0.0101907
-0.00693363
-0.0217364
-0.0330134
-0.0406073
-0.0452519
-0.0480021
-0.0499362
-0.0516671
-0.0534301
-0.0551514
-0.0566172
-0.0577864
-0.0587181
-0.0595096
-0.0602012
-0.0606794
-0.0608467
-0.0605486
-0.0597495
-0.0586008
-0.0573846
-0.0562644
-0.0552468
-0.0541076
-0.0525812
-0.0504308
-0.0479488
-0.0459454
-0.0459519
-0.0499744
-0.0600418
-0.0778333
-0.103759
-0.136599
-0.172856
-0.206702
-0.230322
-0.234465
-0.209004
-0.144409
-0.0337658
0.124109
0.321922
0.541591
0.754781
0.926995
1.02519
1.0268
0.927211
0.742504
0.506012
0.259431
0.0416362
-0.120848
-0.21848
-0.257758
-0.255454
-0.231297
-0.201779
-0.176928
-0.160364
-0.15151
-0.148014
-0.147423
-0.148131
-0.149308
-0.15047
-0.15115
-0.150823
-0.149191
-0.146157
-0.142073
-0.137457
-0.13303
-0.129399
-0.126938
-0.125816
-0.125962
-0.127081
-0.128659
-0.130151
-0.130964
-0.130641
-0.128945
-0.126006
-0.122229
-0.118285
-0.114812
-0.112316
-0.111079
-0.11103
-0.111957
-0.113603
-0.115647
-0.117769
-0.119594
-0.120897
-0.121433
-0.121284
-0.120572
-0.119594
-0.118688
-0.118
-0.117487
-0.116953
-0.116099
-0.114704
-0.112679
-0.110167
-0.107481
-0.104933
-0.102842
-0.10142
-0.10081
-0.101004
-0.101764
-0.102846
-0.103837
-0.104268
-0.103824
-0.10248
-0.100469
-0.098323
-0.096579
-0.0956329
-0.0956368
-0.0964427
-0.0977016
-0.0992034
-0.100903
-0.102938
-0.105736
-0.109645
-0.114779
-0.120868
-0.12727
-0.133041
-0.137173
-0.138835
-0.13755
-0.133278
-0.126462
-0.117817
-0.108215
-0.0984851
-0.0893136
-0.0810751
-0.0738177
-0.0671338
-0.0603798
-0.0527154
-0.0434441
-0.0321001
-0.0187135
-0.00367999
0.0122907
0.0282911
0.0434694
0.057217
0.0692349
0.0794581
0.0881403
0.0955952
0.102181
0.10823
0.113924
0.119324
0.124429
0.129294
0.133892
0.138102
0.141729
0.144481
0.14609
0.146435
0.145514
0.143575
0.141007
0.13815
0.135337
0.132763
0.13046
0.128376
0.126512
0.124767
0.122997
0.121011
0.118626
0.115822
0.112693
0.109493
0.106553
0.104151
0.102472
0.101502
0.101105
0.10106
0.101146
0.101128
0.100871
0.100217
0.0991478
0.0976714
0.0958104
0.0936472
0.0911614
0.088273
0.0849614
0.0812912
0.0774073
0.0735893
0.0700384
0.0669355
0.064307
0.0619879
0.0597548
0.0573188
0.0545009
0.0512443
0.0477445
0.0442596
0.0411754
0.0388292
0.0374443
0.0370661
0.0374552
0.0382654
0.0389874
0.0391477
0.0384376
0.0367064
0.034031
0.0307472
0.0273103
0.0242154
0.0218797
0.020534
0.0201147
0.0203885
0.0208381
0.0209429
0.0202003
0.0183575
0.0153336
0.0113966
0.00694786
0.00252794
-0.001375
-0.0043902
-0.00631393
-0.00712389
-0.00694483
-0.00612187
-0.00502726
-0.00415953
-0.00387708
-0.00442827
-0.00581635
-0.00774916
-0.00981538
-0.0115725
-0.0126254
-0.0129087
-0.0125174
-0.0117923
-0.0109938
-0.0102922
-0.00958907
-0.00859197
-0.00678826
-0.00375138
0.000770843
0.00673968
0.0138487
0.0216682
0.0296909
0.0375487
0.0450112
0.0520698
0.0588991
0.0656575
0.0724029
0.0789784
0.0850465
0.0899867
0.0932492
0.0945068
0.093652
0.0909742
0.08695
0.0822177
0.0773754
0.0730382
0.0698645
0.0684435
0.069081
0.071445
0.0745117
0.0765349
0.0756191
0.0701236
0.0594136
0.044001
0.0255671
0.00627331
-0.011749
-0.026841
-0.0381255
-0.0453196
-0.0487272
-0.0489019
-0.0466934
-0.0430897
-0.0392021
-0.0361402
-0.0346359
-0.0350912
-0.0373622
-0.0408962
-0.0449623
-0.0487385
-0.0516149
-0.0532259
-0.0535633
-0.0528949
-0.0518029
-0.0507886
-0.0502229
-0.0502553
-0.0509112
-0.0520366
-0.0538606
-0.0569553
-0.0624775
-0.0719759
-0.086919
-0.108174
-0.135395
-0.166612
-0.197493
-0.22144
-0.229971
-0.213298
-0.161252
-0.0649494
0.0807757
0.273964
0.502713
0.743548
0.962798
1.12233
1.18868
1.14305
0.988545
0.751417
0.474663
0.206283
-0.0135356
-0.16234
-0.23829
-0.256173
-0.239227
-0.210015
-0.184202
-0.16858
-0.163077
-0.164198
-0.168075
-0.172043
-0.174909
-0.176494
-0.176912
-0.176193
-0.174476
-0.172033
-0.169331
-0.16686
-0.164963
-0.163706
-0.162934
-0.16249
-0.162146
-0.161809
-0.161525
-0.161403
-0.1614
-0.161509
-0.161447
-0.160925
-0.159716
-0.15768
-0.154948
-0.151813
-0.148601
-0.145597
-0.142907
-0.140449
-0.138071
-0.135566
-0.132777
-0.129788
-0.126787
-0.124102
-0.12206
-0.120935
-0.12089
-0.121806
-0.123487
-0.125528
-0.127527
-0.129037
-0.129727
-0.129357
-0.127875
-0.125491
-0.12258
-0.119684
-0.117237
-0.115397
-0.114021
-0.112701
-0.111088
-0.109006
-0.1066
-0.10436
-0.102852
-0.102447
-0.103129
-0.104582
-0.10636
-0.108074
-0.109533
-0.110938
-0.112644
-0.115018
-0.118215
-0.122101
-0.12623
-0.12993
-0.132564
-0.133586
-0.132621
-0.129448
-0.12404
-0.116334
-0.10644
-0.0944933
-0.0807998
-0.0660046
-0.051011
-0.0369274
-0.0247444
-0.0150869
-0.00807475
-0.00315787
0.000615841
0.00443889
0.0092626
0.0156181
0.0235337
0.0326482
0.0423547
0.0521019
0.061526
0.0704685
0.0789392
0.0870337
0.0947329
0.101914
0.1084
0.113859
0.118076
0.120987
0.122637
0.123368
0.123512
0.123502
0.123622
0.124009
0.124698
0.125461
0.126115
0.126369
0.126039
0.125054
0.123408
0.12113
0.118299
0.114991
0.111263
0.10717
0.102871
0.0985732
0.094548
0.0910783
0.0883739
0.0865917
0.0856657
0.0853705
0.0854614
0.0855491
0.0853505
0.0846343
0.0832149
0.0810684
0.0782334
0.0748972
0.0714072
0.0681705
0.0654536
0.0633452
0.0616373
0.0598939
0.0575712
0.0542166
0.0497281
0.0443579
0.0385957
0.0330247
0.0281525
0.0243073
0.0215595
0.0196527
0.018341
0.0172761
0.0162111
0.0150811
0.0138356
0.0124927
0.0110636
0.00944752
0.00746754
0.00513183
0.00246749
-0.000310716
-0.00288353
-0.00503286
-0.00665988
-0.00793412
-0.00920071
-0.0108527
-0.0131622
-0.0161744
-0.019621
-0.023043
-0.0259845
-0.0280983
-0.0292653
-0.0295808
-0.0293055
-0.0287382
-0.0280033
-0.0271756
-0.0261372
-0.0247691
-0.0230243
-0.0209298
-0.018529
-0.0158908
-0.0130792
-0.0101351
-0.00709523
-0.0041146
-0.00138334
0.000731196
0.00188336
0.00187125
0.000703082
-0.00133401
-0.00384754
-0.0064408
-0.00873508
-0.0106442
-0.0121471
-0.013206
-0.0136373
-0.0129812
-0.0106909
-0.0062344
0.000657959
0.00973788
0.0202447
0.0311575
0.0414204
0.0502697
0.0575318
0.0636083
0.0691452
0.0749018
0.0812063
0.0879403
0.0944023
0.0997466
0.103064
0.103891
0.102262
0.0987395
0.0941093
0.089234
0.0846644
0.0806954
0.0773816
0.0747877
0.0731467
0.0726975
0.0733817
0.0745867
0.0752069
0.0736221
0.0683824
0.0587314
0.0449726
0.0283563
0.0109467
-0.00514777
-0.0182894
-0.0276128
-0.0330275
-0.0353171
-0.0355091
-0.0349465
-0.0347409
-0.0356304
-0.0379567
-0.0415437
-0.046002
-0.0507156
-0.0550645
-0.058517
-0.0607141
-0.061506
-0.060964
-0.0593101
-0.0569454
-0.0541692
-0.0513422
-0.0487266
-0.0466234
-0.0455127
-0.0464499
-0.051001
-0.0610145
-0.0782067
-0.103498
-0.136267
-0.173626
-0.210026
-0.237664
-0.24726
-0.229074
-0.174011
-0.0749548
0.0712544
0.261548
0.484297
0.7179
0.931702
1.09059
1.16285
1.12922
0.990078
0.767656
0.501216
0.236754
0.0146781
-0.140164
-0.22251
-0.244435
-0.227866
-0.195929
-0.165812
-0.146202
-0.138188
-0.138497
-0.142815
-0.147891
-0.152318
-0.155995
-0.159385
-0.162755
-0.165998
-0.168774
-0.170642
-0.171276
-0.170625
-0.168816
-0.166187
-0.163092
-0.159888
-0.156741
-0.15371
-0.150744
-0.147855
-0.145061
-0.142517
-0.140294
-0.138487
-0.137057
-0.135931
-0.134978
-0.134119
-0.133083
-0.131778
-0.130022
-0.127767
-0.125133
-0.122315
-0.119683
-0.117585
-0.116162
-0.115422
-0.115149
-0.115057
-0.114947
-0.114642
-0.114133
-0.113442
-0.112433
-0.111055
-0.109218
-0.10693
-0.104422
-0.101976
-0.0999358
-0.0985071
-0.0977214
-0.097434
-0.0974992
-0.0977114
-0.0979981
-0.0982739
-0.098401
-0.0982528
-0.0977361
-0.0967576
-0.0954745
-0.0941232
-0.0931352
-0.0929073
-0.0937938
-0.0959741
-0.0993769
-0.103686
-0.10848
-0.113176
-0.117196
-0.12008
-0.121449
-0.121073
-0.118904
-0.114865
-0.108941
-0.101011
-0.0911217
-0.079402
-0.0662171
-0.0523432
-0.0387493
-0.0265084
-0.0164848
-0.0091213
-0.00435672
-0.001596
0.000131353
0.0018
0.00434553
0.00841977
0.0143144
0.0219875
0.0310867
0.0410362
0.0510592
0.0604441
0.0685619
0.0750861
0.0801084
0.0840254
0.0874389
0.0908831
0.0947237
0.0989529
0.1032
0.106987
0.109829
0.111462
0.111986
0.111759
0.111222
0.110792
0.110531
0.11045
0.110355
0.109932
0.109086
0.107802
0.106185
0.104337
0.102354
0.100128
0.0975458
0.0944352
0.0908574
0.0869861
0.0831127
0.0795098
0.0763759
0.0737518
0.0716228
0.0699718
0.0687997
0.0681536
0.0679134
0.0677269
0.0670818
0.0652915
0.0619831
0.0571212
0.0511611
0.0449445
0.039368
0.0351312
0.0324541
0.0312136
0.0309133
0.0310201
0.0310722
0.0308814
0.0304015
0.0296261
0.0285852
0.0272256
0.0253843
0.0229722
0.0199983
0.0166072
0.0130582
0.00961011
0.00650325
0.003818
0.00135967
-0.00101965
-0.00349222
-0.00609709
-0.00867392
-0.0107647
-0.0120251
-0.0121995
-0.0112405
-0.00941922
-0.00721731
-0.00518266
-0.0037231
-0.00309831
-0.0033253
-0.00405833
-0.00500227
-0.00582309
-0.00635285
-0.00659511
-0.00677511
-0.00719983
-0.00807962
-0.00945117
-0.0111739
-0.0130138
-0.0146209
-0.0157377
-0.0162805
-0.0161719
-0.0154175
-0.0141666
-0.012539
-0.0107646
-0.00903468
-0.00749206
-0.00611499
-0.00461671
-0.00252878
0.000774347
0.00590428
0.0131035
0.0222262
0.0327249
0.0437111
0.0542371
0.0636135
0.0715106
0.0779411
0.0831683
0.0874401
0.0908012
0.0931693
0.0942186
0.0938384
0.0919974
0.0888377
0.0847608
0.0802824
0.0760577
0.072779
0.0711451
0.0717929
0.0748714
0.0798879
0.0855406
0.0898984
0.0908585
0.0868246
0.0771081
0.0623019
0.0441318
0.0248738
0.00691584
-0.00799354
-0.0190513
-0.026505
-0.0311815
-0.0343584
-0.0370702
-0.0400955
-0.0436658
-0.0474254
-0.0508053
-0.0532477
-0.054378
-0.0541837
-0.0528877
-0.0509915
-0.0490265
-0.047518
-0.046815
-0.0470153
-0.0478559
-0.0488592
-0.0494371
-0.0492027
-0.0481853
-0.047226
-0.0479685
-0.0525842
-0.0634259
-0.0820971
-0.109158
-0.143483
-0.181798
-0.218324
-0.244821
-0.250985
-0.224981
-0.155221
-0.0335435
0.140678
0.356707
0.590565
0.80686
0.965615
1.03261
0.990087
0.843524
0.621624
0.368356
0.130385
-0.0560963
-0.173653
-0.22495
-0.227407
-0.204015
-0.175094
-0.153102
-0.14186
-0.139309
-0.141298
-0.144309
-0.14651
-0.147685
-0.148496
-0.149612
-0.15116
-0.15284
-0.154145
-0.154624
-0.153944
-0.1521
-0.149311
-0.145987
-0.142564
-0.139355
-0.136419
-0.133623
-0.130683
-0.127459
-0.12393
-0.120375
-0.117233
-0.114899
-0.113561
-0.11315
-0.113278
-0.113381
-0.112865
-0.11137
-0.108806
-0.105416
-0.101691
-0.0982112
-0.0956164
-0.0942131
-0.0941239
-0.0951114
-0.0967625
-0.098554
-0.100102
-0.101218
-0.102026
-0.102648
-0.103115
-0.1033
-0.102877
-0.101523
-0.0991734
-0.0961146
-0.0929508
-0.0902827
-0.0884556
-0.0872978
-0.0863284
-0.084921
-0.0827383
-0.0798987
-0.0768369
-0.074268
-0.0727182
-0.0725202
-0.0737155
-0.0761792
-0.0797518
-0.0842854
-0.0896246
-0.0955999
-0.101778
-0.107784
-0.113169
-0.117521
-0.120618
-0.12222
-0.122187
-0.120333
-0.116469
-0.110414
-0.102073
-0.0915959
-0.0794321
-0.0663072
-0.0531159
-0.0407528
-0.0300012
-0.0212666
-0.0145673
-0.00958906
-0.005648
-0.00202012
0.00210704
0.00738161
0.0141254
0.0223888
0.0318301
0.0418971
0.0517056
0.0603885
0.0672994
0.0720238
0.0747034
0.0759255
0.0765902
0.0775759
0.0795486
0.0826684
0.0865181
0.0902026
0.0927249
0.0932642
0.0915395
0.0878713
0.0831906
0.0786689
0.0751914
0.0733345
0.0728669
0.073038
0.0729108
0.0717315
0.0692259
0.065547
0.0613497
0.0572906
0.0538952
0.0513845
0.0497276
0.048659
0.0479946
0.0475578
0.0472349
0.0468172
0.0460578
0.0446592
0.0422688
0.0386785
0.0339758
0.0285968
0.0231444
0.0183268
0.0148213
0.0128838
0.0124998
0.0132888
0.0146345
0.0159141
0.0165554
0.0162027
0.0147486
0.0122795
0.00902579
0.00528188
0.00134477
-0.00244762
-0.00589329
-0.00869197
-0.0106678
-0.0117046
-0.0118141
-0.011266
-0.0104049
-0.00968412
-0.00950547
-0.0101136
-0.0114914
-0.01335
-0.0154223
-0.0173996
-0.0191304
-0.0206513
-0.0220531
-0.0233461
-0.0244497
-0.024941
-0.0245223
-0.0230732
-0.0207298
-0.0181108
-0.0159362
-0.0149006
-0.0152592
-0.0168585
-0.0191081
-0.0212984
-0.0227662
-0.0232281
-0.0227811
-0.0218302
-0.0207661
-0.0197789
-0.018652
-0.0168122
-0.0135706
-0.00845228
-0.00161454
0.00628058
0.0141443
0.0210183
0.02658
0.0311121
0.0355389
0.040901
0.0478055
0.0562326
0.0653448
0.0739944
0.0810597
0.0858622
0.0882182
0.0883643
0.0866744
0.0835427
0.079157
0.0738885
0.0682425
0.0629903
0.0588059
0.0558765
0.0537601
0.0512487
0.0469256
0.0395442
0.0287721
0.0152609
0.0005579
-0.0134884
-0.025375
-0.034289
-0.0403586
-0.0441822
-0.0463807
-0.0473591
-0.0471734
-0.0457535
-0.043174
-0.0398464
-0.036695
-0.0348055
-0.0350086
-0.037561
-0.0419691
-0.0471537
-0.051632
-0.0541319
-0.0539556
-0.0510584
-0.0461857
-0.0405929
-0.0357332
-0.0327298
-0.0323441
-0.0350443
-0.0413461
-0.051966
-0.0680386
-0.0907089
-0.12023
-0.154592
-0.188535
-0.213165
-0.216415
-0.18482
-0.106473
0.0249767
0.206327
0.421984
0.643859
0.835349
0.959075
0.987101
0.909702
0.739665
0.509632
0.263253
0.0429334
-0.121347
-0.218195
-0.254037
-0.246977
-0.218494
-0.186168
-0.160055
-0.143034
-0.133666
-0.129374
-0.128263
-0.129639
-0.133389
-0.139082
-0.145599
-0.151318
-0.154857
-0.155583
-0.153761
-0.150408
-0.146791
-0.143796
-0.141746
-0.14042
-0.139242
-0.137626
-0.1353
-0.132345
-0.129213
-0.126436
-0.124459
-0.123371
-0.122985
-0.122815
-0.122328
-0.121093
-0.118987
-0.116354
-0.113789
-0.112047
-0.111663
-0.11273
-0.114809
-0.116952
-0.118176
-0.117566
-0.114711
-0.109848
-0.103766
-0.0975491
-0.0922514
-0.0886647
-0.0871294
-0.0874919
-0.0892455
-0.0917528
-0.094427
-0.0967778
-0.0984877
-0.099395
-0.0994641
-0.0988078
-0.0978087
-0.0968516
-0.0964424
-0.0968035
-0.097918
-0.0995736
-0.101414
-0.103243
-0.104936
-0.106681
-0.108605
-0.110646
-0.112471
-0.113553
-0.113482
-0.112363
-0.110841
-0.110052
-0.111198
-0.115033
-0.121335
-0.128842
-0.135504
-0.139106
-0.138096
-0.131873
-0.120908
-0.106452
-0.0899807
-0.0728098
-0.0557217
-0.038992
-0.0226979
-0.00674937
0.00890022
0.0242666
0.0392389
0.0536275
0.0671137
0.079332
0.0898685
0.0985704
0.105429
0.110653
0.114524
0.11731
0.119184
0.120134
0.120161
0.119294
0.117903
0.116481
0.115554
0.115495
0.116426
0.118127
0.12012
0.12184
0.122938
0.123247
0.122788
0.121604
0.119618
0.116706
0.112698
0.107571
0.101549
0.0951277
0.0889728
0.0836986
0.079694
0.076983
0.0752382
0.0739679
0.0726143
0.0708836
0.0687203
0.066404
0.0644746
0.0634428
0.0634803
0.0644743
0.0658191
0.0667406
0.0665098
0.0648018
0.0616608
0.0576598
0.0535251
0.0498266
0.0468601
0.0445254
0.0424846
0.0404793
0.0384456
0.0365486
0.0350321
0.0340818
0.0335549
0.0330545
0.0320807
0.0302108
0.0272969
0.0235799
0.019557
0.0157699
0.0128952
0.0112158
0.0109127
0.0118484
0.0136874
0.015975
0.0183003
0.0202825
0.0216617
0.0223253
0.0222747
0.0216956
0.0208105
0.0197902
0.0187803
0.0177537
0.016638
0.0152553
0.0135215
0.0114589
0.00920051
0.00698396
0.00497158
0.00321992
0.00158864
-1.21211e-5
-0.00170095
-0.00322125
-0.00416122
-0.00385529
-0.00158263
0.00308977
0.0102668
0.0194962
0.0299601
0.0406858
0.0508978
0.0600857
0.0682828
0.0758242
0.0830341
0.0900942
0.0967648
0.102433
0.106339
0.107834
0.106763
0.103383
0.0984562
0.0927789
0.0870444
0.0815799
0.0764534
0.0716519
0.0674532
0.0644236
0.0631386
0.0638152
0.0658977
0.0680372
0.0683135
0.0649805
0.0570543
0.0448853
0.0298756
0.014114
-0.00028598
-0.0119302
-0.020415
-0.0260525
-0.02968
-0.0320988
-0.0339045
-0.0353592
-0.03655
-0.0374594
-0.0381705
-0.0388597
-0.039824
-0.0412284
-0.0430896
-0.0452634
-0.0473968
-0.0491035
-0.0500655
-0.0502773
-0.050402
-0.0518981
-0.0567772
-0.0673316
-0.0851957
-0.110544
-0.141186
-0.172381
-0.197191
-0.207737
-0.196797
-0.159118
-0.0921563
0.00442279
0.129587
0.281253
0.455685
0.646028
0.840017
1.01845
1.15613
1.22629
1.20792
1.09356
0.894061
0.637957
0.365157
0.116588
-0.0764069
-0.199129
-0.254823
-0.260115
-0.237436
-0.207057
-0.182145
-0.167938
-0.163516
-0.165193
-0.16909
-0.172637
-0.174916
-0.176062
-0.176494
-0.176596
-0.176497
-0.176145
-0.175359
-0.173926
-0.171732
-0.168881
-0.165696
-0.162631
-0.160103
-0.158325
-0.157353
-0.15702
-0.156985
-0.156899
-0.156437
-0.155456
-0.154008
-0.152342
-0.150833
-0.149822
-0.149476
-0.149666
-0.150038
-0.150112
-0.149414
-0.147755
-0.145162
-0.141947
-0.138448
-0.135032
-0.131954
-0.129377
-0.127275
-0.125582
-0.124223
-0.123105
-0.122222
-0.12157
-0.121165
-0.121006
-0.121119
-0.12147
-0.122108
-0.122905
-0.123852
-0.124901
-0.126054
-0.127319
-0.128759
-0.130426
-0.132325
-0.134342
-0.136291
-0.137907
-0.139009
-0.139549
-0.139694
-0.139737
-0.140094
-0.14109
-0.142856
-0.145297
-0.148001
-0.150407
-0.151814
-0.15162
-0.149436
-0.145115
-0.13867
-0.130366
-0.120442
-0.109101
-0.0964425
-0.0825703
-0.0675313
-0.0515432
-0.0349668
-0.018283
-0.00198949
0.01358
0.0282285
0.0420082
0.0550756
0.06767
0.0800082
0.0921198
0.103943
0.115121
0.125308
0.134038
0.140887
0.145532
0.147907
0.148138
0.146614
0.143878
0.140628
0.137429
0.134928
0.13345
0.133046
0.133395
0.133913
0.133974
0.13309
0.131073
0.128113
0.124649
0.121224
0.118205
0.115789
0.113881
0.112219
0.11064
0.108822
0.106701
0.10414
0.101128
0.097639
0.0937553
0.0895865
0.0853306
0.0812553
0.0776875
0.0747809
0.0726668
0.0712937
0.0704825
0.0699941
0.0695778
0.0690414
0.0682884
0.06731
0.0661243
0.0647819
0.0632792
0.0615238
0.0594522
0.0569756
0.0540064
0.050564
0.0466843
0.0424135
0.0378566
0.0331611
0.0285629
0.0244231
0.0210602
0.0185924
0.0170309
0.0161513
0.0155391
0.0148
0.0137038
0.0122272
0.0105263
0.00894369
0.00768898
0.00686596
0.00644507
0.00618641
0.00593055
0.00552395
0.00492927
0.00415223
0.00327649
0.00227159
0.00089046
-0.00110682
-0.00390845
-0.00752787
-0.0115754
-0.0154972
-0.0186722
-0.0206571
-0.0214159
-0.0213271
-0.02088
-0.0205641
-0.0206298
-0.020915
-0.0210235
-0.0205706
-0.0193431
-0.0175716
-0.0156981
-0.01402
-0.0126394
-0.0111292
-0.00870293
-0.00449591
0.00199127
0.0106949
0.0208442
0.0313207
0.0409057
0.0489006
0.0551545
0.0601304
0.0645598
0.0691367
0.0740408
0.079049
0.083473
0.0865816
0.0878803
0.0873033
0.0851883
0.0821288
0.0787548
0.075727
0.0735757
0.0727919
0.073778
0.0764459
0.0800893
0.0833051
0.0841961
0.0808209
0.0720589
0.0577878
0.0391991
0.018436
-0.00201505
-0.0199384
-0.033919
-0.0434983
-0.0489425
-0.0510683
-0.050929
-0.0495436
-0.0478287
-0.0465323
-0.0459942
-0.0463434
-0.0473274
-0.0486187
-0.0497747
-0.0506056
-0.051121
-0.0515178
-0.0519839
-0.052592
-0.0531829
-0.0534671
-0.0534165
-0.0536072
-0.0553973
-0.0609744
-0.0726977
-0.092515
-0.120964
-0.156469
-0.194314
-0.226622
-0.242661
-0.229899
-0.175447
-0.0690934
0.0929806
0.304539
0.546506
0.787308
0.987249
1.10733
1.11992
1.01808
0.819177
0.561247
0.292538
0.0579717
-0.112576
-0.209819
-0.243651
-0.235519
-0.209061
-0.182577
-0.165499
-0.159032
-0.159817
-0.1635
-0.166752
-0.168055
-0.167506
-0.165845
-0.163854
-0.162084
-0.160961
-0.160653
-0.161158
-0.16218
-0.163231
-0.163852
-0.163764
-0.162876
-0.16138
-0.159547
-0.157668
-0.156024
-0.154693
-0.15367
-0.152884
-0.152183
-0.151383
-0.150287
-0.148828
-0.146859
-0.144412
-0.141564
-0.138408
-0.1351
-0.131723
-0.128474
-0.125392
-0.122551
-0.11988
-0.117287
-0.114787
-0.112514
-0.110623
-0.109295
-0.108612
-0.108518
-0.108831
-0.109288
-0.109831
-0.110314
-0.110864
-0.111513
-0.112237
-0.112921
-0.113376
-0.113523
-0.113406
-0.113202
-0.113158
-0.113377
-0.113827
-0.114126
-0.113829
-0.112626
-0.110382
-0.107487
-0.104612
-0.102443
-0.101481
-0.101866
-0.103182
-0.104892
-0.106448
-0.107598
-0.108239
-0.108675
-0.108999
-0.10913
-0.108605
-0.10677
-0.102928
-0.0965701
-0.0875203
-0.0760305
-0.0627079
-0.0483981
-0.0339841
-0.020249
-0.0077819
0.00332654
0.0131966
0.0223041
0.031158
0.0401805
0.0495907
0.0594451
0.0694833
0.0794592
0.0890409
0.0977973
0.1053
0.111239
0.115464
0.118183
0.119831
0.12103
0.122325
0.123984
0.125862
0.12755
0.128528
0.128476
0.127387
0.125497
0.123237
0.120978
0.119044
0.117381
0.115924
0.114487
0.112944
0.111281
0.109572
0.107847
0.10612
0.104417
0.102651
0.100818
0.098897
0.0967937
0.0944234
0.0916615
0.0883739
0.0845761
0.0803764
0.0760126
0.0718638
0.0682358
0.0653221
0.0631178
0.0615086
0.0602403
0.0589829
0.0575472
0.055734
0.0535365
0.0510244
0.0483447
0.0457083
0.0433382
0.0413212
0.0396492
0.038197
0.0367477
0.0350159
0.0328232
0.0300413
0.0266475
0.0227328
0.0183452
0.0136431
0.00882611
0.00406334
-0.000252701
-0.0038887
-0.00662996
-0.00850258
-0.00967823
-0.0104524
-0.011063
-0.0116155
-0.0120825
-0.0123164
-0.0122426
-0.0118927
-0.0114408
-0.0110814
-0.0109448
-0.0109705
-0.0110788
-0.0111239
-0.0110897
-0.011093
-0.0114258
-0.0123522
-0.0139692
-0.0161489
-0.0185294
-0.020503
-0.021643
-0.0216716
-0.0206405
-0.0188808
-0.0169036
-0.0151655
-0.0140362
-0.0135387
-0.0134755
-0.0134027
-0.0129165
-0.0117053
-0.0097554
-0.00727002
-0.00472626
-0.00259409
-0.0012429
-0.000641208
-0.000439578
7.1622e-5
0.00171658
0.00516918
0.0106999
0.0181492
0.0269199
0.0361458
0.044964
0.0529081
0.0598749
0.0661737
0.0722594
0.0784917
0.0849828
0.0914331
0.0973289
0.102064
0.105247
0.106674
0.106425
0.104766
0.102109
0.09869
0.0947365
0.0903573
0.0856494
0.080672
0.0757275
0.0712326
0.0678313
0.0660952
0.0662118
0.0677267
0.0695219
0.0698792
0.0671279
0.0602022
0.0490087
0.0344969
0.0183697
0.00254733
-0.0114519
-0.0228359
-0.0315101
-0.0377965
-0.0421163
-0.0448795
-0.0464587
-0.0472169
-0.047526
-0.0478934
-0.0486423
-0.0499995
-0.0520618
-0.05464
-0.0575123
-0.0604198
-0.0629894
-0.0647659
-0.0653778
-0.0645081
-0.0622439
-0.0592761
-0.0568367
-0.056773
-0.0612684
-0.0724547
-0.0917578
-0.119341
-0.153472
-0.190269
-0.224036
-0.248138
-0.256269
-0.243485
-0.206746
-0.144107
-0.0538988
0.0660171
0.217086
0.397332
0.597867
0.800178
0.976514
1.09461
1.1263
1.05682
0.891631
0.656783
0.392671
0.143047
-0.0568119
-0.188306
-0.251671
-0.261988
-0.24129
-0.210525
-0.184002
-0.167762
-0.161447
-0.161508
-0.164063
-0.16662
-0.168212
-0.168915
-0.169165
-0.169151
-0.168862
-0.168234
-0.16721
-0.165842
-0.164151
-0.162063
-0.159543
-0.156523
-0.153054
-0.149297
-0.145479
-0.141782
-0.138358
-0.1352
-0.132303
-0.129646
-0.127176
-0.12497
-0.123089
-0.121495
-0.120185
-0.118993
-0.117703
-0.116196
-0.114356
-0.112242
-0.1101
-0.108341
-0.10739
-0.107475
-0.108685
-0.1107
-0.113
-0.115024
-0.116173
-0.116281
-0.115358
-0.113758
-0.111937
-0.110268
-0.108883
-0.107707
-0.106555
-0.105124
-0.103196
-0.100821
-0.0980833
-0.0953413
-0.092953
-0.0912904
-0.0905026
-0.0906685
-0.0915589
-0.0928599
-0.0941173
-0.0951353
-0.0957751
-0.0962739
-0.0969736
-0.0981978
-0.100381
-0.103542
-0.107645
-0.112357
-0.117173
-0.121436
-0.124464
-0.125538
-0.124093
-0.11982
-0.112639
-0.102788
-0.0908103
-0.0773762
-0.0633224
-0.0495209
-0.0367884
-0.0257593
-0.0169283
-0.0102835
-0.0056648
-0.0023965
0.000221661
0.00299261
0.00652798
0.0111088
0.0168057
0.0233367
0.0303529
0.0373682
0.0440197
0.0499556
0.0551054
0.0594917
0.0633399
0.0670068
0.0707893
0.074946
0.0796016
0.0845997
0.0897002
0.0945607
0.0988008
0.102184
0.104672
0.106343
0.107496
0.10837
0.109175
0.109911
0.110422
0.110485
0.109948
0.108922
0.10762
0.106358
0.105266
0.104345
0.103288
0.101751
0.0994212
0.0961863
0.0921619
0.087684
0.0830841
0.0786961
0.0745661
0.0707383
0.0671503
0.0637644
0.0605622
0.0576409
0.0550477
0.0528308
0.0509556
0.0492589
0.047556
0.0456927
0.0435842
0.0412511
0.0388146
0.0364091
0.0341758
0.0321445
0.0302175
0.0282153
0.0259245
0.0231396
0.0198759
0.0163102
0.0126675
0.00928994
0.00650727
0.00451323
0.00328571
0.00263981
0.00227161
0.00186956
0.00125936
0.000396961
-0.000560384
-0.00131833
-0.00167662
-0.0016162
-0.00120428
-0.000739445
-0.000545394
-0.000859251
-0.00189964
-0.00365652
-0.00601368
-0.0087983
-0.0117972
-0.0147783
-0.0176762
-0.0206052
-0.0235968
-0.0266897
-0.0297281
-0.0323975
-0.0342981
-0.0351282
-0.0348019
-0.0336218
-0.0320343
-0.0304387
-0.0290565
-0.0278651
-0.0266309
-0.0250333
-0.0229841
-0.0205657
-0.0180977
-0.0160118
-0.0146036
-0.0140058
-0.01406
-0.0144285
-0.0147434
-0.0146768
-0.0140413
-0.0128629
-0.0114249
-0.0101028
-0.00929686
-0.00927372
-0.00991793
-0.0106609
-0.0106523
-0.00878648
-0.00427082
0.00313199
0.0129876
0.0243394
0.0360463
0.0472471
0.0575708
0.0670843
0.0761551
0.084931
0.0932
0.100282
0.105174
0.107064
0.105639
0.101207
0.0947674
0.0875918
0.0809292
0.0754722
0.0713383
0.0681544
0.0654173
0.0628754
0.060774
0.0596159
0.0598012
0.0611259
0.0625597
0.0625477
0.0593264
0.0516161
0.0392513
0.0231747
0.00522157
-0.012465
-0.0279806
-0.0401816
-0.0485603
-0.053419
-0.0554015
-0.0553797
-0.0542578
-0.0528375
-0.0517929
-0.0514493
-0.0519807
-0.0532105
-0.0548562
-0.0565599
-0.0581301
-0.0596322
-0.0612548
-0.0631147
-0.0651061
-0.066969
-0.0682543
-0.0687599
-0.0688238
-0.0693167
-0.0715635
-0.0767205
-0.0854457
-0.0976656
-0.112862
-0.130542
-0.150687
-0.173515
-0.19901
-0.225752
-0.250316
-0.267178
-0.268941
-0.247044
-0.19263
-0.0984061
0.0393138
0.217568
0.423926
0.635254
0.819904
0.943827
0.97955
0.915213
0.759754
0.541752
0.301904
0.0815392
-0.0884023
-0.193936
-0.238696
-0.238601
-0.214203
-0.183592
-0.158087
-0.141895
-0.134242
-0.132165
-0.132687
-0.133955
-0.135197
-0.136156
-0.136659
-0.136478
-0.135487
-0.133702
-0.131408
-0.129083
-0.12717
-0.125876
-0.125131
-0.124579
-0.123695
-0.122112
-0.119839
-0.11721
-0.114821
-0.113189
-0.112547
-0.112631
-0.112808
-0.112423
-0.111024
-0.108559
-0.105279
-0.101688
-0.0982586
-0.0952229
-0.0926388
-0.0904774
-0.0886702
-0.0873679
-0.0866862
-0.0867261
-0.0873813
-0.0883743
-0.0892563
-0.089539
-0.0890704
-0.0879555
-0.0865418
-0.0853686
-0.084693
-0.0845513
-0.0845977
-0.0843628
-0.0834712
-0.0817948
-0.0794823
-0.0768487
-0.0742792
-0.0719551
-0.0698142
-0.0677135
-0.0656042
-0.0635848
-0.0621458
-0.0617077
-0.0627249
-0.0652891
-0.0692047
-0.0740376
-0.0793669
-0.0849331
-0.090695
-0.0967072
-0.102962
-0.109276
-0.115237
-0.120299
-0.124062
-0.126281
-0.126851
-0.125773
-0.12304
-0.118591
-0.112347
-0.104314
-0.094779
-0.0841512
-0.0730077
-0.0619165
-0.0511896
-0.040989
-0.0311383
-0.0213981
-0.0116105
-0.00176864
0.00794793
0.0171688
0.0256656
0.0333047
0.0402477
0.0469117
0.0536735
0.0606902
0.0679122
0.0749315
0.0811164
0.0859196
0.0890352
0.0906633
0.0913762
0.0920159
0.0933794
0.0959115
0.0994497
0.103356
0.10667
0.108557
0.108528
0.106678
0.103609
0.100106
0.0968267
0.0940599
0.0916807
0.0892462
0.0864136
0.0829746
0.0791031
0.075235
0.0716803
0.0686951
0.0663282
0.0645203
0.0634153
0.0631852
0.0640225
0.0659471
0.068562
0.0710148
0.0723845
0.0718429
0.06923
0.0650242
0.0602189
0.0558734
0.052727
0.0508708
0.0498225
0.0487185
0.04664
0.0430774
0.0379515
0.031697
0.025047
0.0187485
0.0134849
0.00968169
0.00745737
0.00681926
0.00749263
0.00912493
0.0113286
0.0136554
0.015787
0.0175879
0.0190536
0.0203677
0.0216529
0.0229354
0.0240554
0.0247625
0.0247705
0.0239191
0.022211
0.0198416
0.0171128
0.0142994
0.011588
0.00912723
0.00700596
0.00522451
0.00372462
0.00229474
0.000640586
-0.00157908
-0.00457066
-0.00824513
-0.0122059
-0.0158649
-0.0185963
-0.0200874
-0.0203102
-0.019603
-0.0183205
-0.0168046
-0.0152568
-0.0138632
-0.0128682
-0.012537
-0.0130422
-0.0142178
-0.0154236
-0.0154832
-0.0131494
-0.00756511
0.00123574
0.0122925
0.0240353
0.0347951
0.0434402
0.0497233
0.0542371
0.058069
0.0622034
0.0670817
0.0724581
0.0775593
0.0814214
0.0833895
0.08332
0.0818192
0.0798891
0.0786183
0.0786561
0.0797792
0.0809856
0.0809579
0.0787056
0.0742393
0.0686336
0.0635726
0.0605977
0.0603696
0.0620817
0.0639225
0.0636625
0.0595818
0.0510807
0.0387461
0.0240005
0.0086993
-0.00549075
-0.0173219
-0.0260387
-0.0315046
-0.0340059
-0.0344898
-0.0341696
-0.0343373
-0.0360894
-0.0398427
-0.0452363
-0.0512984
-0.0566139
-0.0600001
-0.0607456
-0.0589036
-0.0552529
-0.050996
-0.0470951
-0.0442719
-0.0424751
-0.0412619
-0.0401353
-0.039148
-0.0392945
-0.0425096
-0.0511734
-0.0672749
-0.0916147
-0.122817
-0.156915
-0.18715
-0.204796
-0.200314
-0.16477
-0.0914334
0.0228773
0.176768
0.363772
0.572509
0.787083
0.988137
1.1544
1.26485
1.30191
1.25554
1.1263
0.927058
0.681733
0.420955
0.176125
-0.0271424
-0.173817
-0.261259
-0.297428
-0.296907
-0.276025
-0.248903
-0.224975
-0.208642
-0.200198
-0.197453
-0.197558
-0.198219
-0.19825
-0.197594
-0.196812
-0.196582
-0.197289
-0.198726
-0.200218
-0.201068
-0.20066
-0.198705
-0.195402
-0.191206
-0.186674
-0.182407
-0.17885
-0.176043
-0.173897
-0.172104
-0.170365
-0.168521
-0.166714
-0.165206
-0.164276
-0.164139
-0.164794
-0.165896
-0.166945
-0.16745
-0.167041
-0.165558
-0.163143
-0.16021
-0.15727
-0.154879
-0.153484
-0.153291
-0.154157
-0.155594
-0.15699
-0.157642
-0.157065
-0.15523
-0.152502
-0.14954
-0.147159
-0.145986
-0.146157
-0.147348
-0.148899
-0.150017
-0.149992
-0.14858
-0.145948
-0.142692
-0.13968
-0.137766
-0.13746
-0.138893
-0.141821
-0.145711
-0.14994
-0.154122
-0.15807
-0.161922
-0.165851
-0.169949
-0.17408
-0.177822
-0.180539
-0.181625
-0.180554
-0.176976
-0.170722
-0.161886
-0.150626
-0.137279
-0.122409
-0.106778
-0.091408
-0.0773003
-0.0651947
-0.0553731
-0.0476104
-0.0411195
-0.0349512
-0.0280585
-0.0197673
-0.00975067
0.00175856
0.0143723
0.0274706
0.0405003
0.0531832
0.0653568
0.0770036
0.088225
0.0990292
0.109279
0.118681
0.126895
0.133569
0.138541
0.141851
0.143766
0.144778
0.145314
0.145678
0.146008
0.146118
0.145784
0.144757
0.143
0.140616
0.13784
0.134953
0.132109
0.129289
0.126405
0.123149
0.1194
0.115178
0.110637
0.106155
0.102156
0.0989702
0.0967568
0.0955213
0.0950621
0.095059
0.0952071
0.0951856
0.0948572
0.0940634
0.092753
0.0909546
0.0886351
0.0858709
0.0826587
0.0790603
0.07523
0.071363
0.0676617
0.0643139
0.0613025
0.0585836
0.0559086
0.0530066
0.0497881
0.0461998
0.0423395
0.0385555
0.0352578
0.0328081
0.031449
0.0311899
0.0318083
0.0329194
0.0341179
0.0351568
0.0359114
0.0364144
0.0367455
0.0368477
0.036496
0.0354173
0.0334159
0.0305014
0.0269887
0.0233468
0.020029
0.0173143
0.0152502
0.0137662
0.0125309
0.0113343
0.010026
0.00858485
0.00707283
0.00548591
0.0038816
0.00223611
0.000613383
-0.000930344
-0.00236656
-0.00365394
-0.00475714
-0.00563053
-0.00627794
-0.0066617
-0.0067902
-0.00664467
-0.0062756
-0.00562547
-0.0046165
-0.00292066
-8.56797e-5
0.0043015
0.0104668
0.0181058
0.0265673
0.034872
0.0422085
0.0480036
0.0523759
0.0560157
0.0597379
0.0643061
0.0699453
0.0762694
0.0824374
0.0874852
0.0906784
0.0917419
0.0909912
0.0890179
0.0865261
0.0839804
0.081514
0.0790009
0.0763818
0.0737101
0.0714969
0.0704793
0.0712308
0.073706
0.0770054
0.0793732
0.078725
0.0733537
0.062454
0.046621
0.0277169
0.00816309
-0.00964824
-0.0240485
-0.0343841
-0.0408681
-0.0443558
-0.0458577
-0.0463371
-0.0464553
-0.0466225
-0.0469369
-0.0473858
-0.0478834
-0.0484951
-0.0492176
-0.0502054
-0.0515886
-0.0533704
-0.055426
-0.0574222
-0.0589395
-0.0596012
-0.0591851
-0.0577981
-0.0561153
-0.0552648
-0.056654
-0.0615461
-0.070656
-0.0839171
-0.100579
-0.119708
-0.140592
-0.162917
-0.186387
-0.20981
-0.229923
-0.24092
-0.234777
-0.201955
-0.132913
-0.020187
0.139141
0.340617
0.5703
0.803788
1.00829
1.14801
1.19295
1.12807
0.959765
0.715989
0.439977
0.178378
-0.0310933
-0.168506
-0.234015
-0.243623
-0.220802
-0.187883
-0.160062
-0.143683
-0.138395
-0.140379
-0.145324
-0.150124
-0.15335
-0.154723
-0.154603
-0.153503
-0.15194
-0.15037
-0.149236
-0.148605
-0.148449
-0.148439
-0.14821
-0.147384
-0.145783
-0.143401
-0.140448
-0.137166
-0.133975
-0.13119
-0.129051
-0.127605
-0.126833
-0.126489
-0.126224
-0.125678
-0.124603
-0.122941
-0.120924
-0.118921
-0.117344
-0.116389
-0.116027
-0.116018
-0.115998
-0.115727
-0.115089
-0.114289
-0.113563
-0.113083
-0.112856
-0.112636
-0.112039
-0.110806
-0.108811
-0.106285
-0.103684
-0.101548
-0.100182
-0.0996331
-0.0995735
-0.0995522
-0.099181
-0.0983274
-0.0971743
-0.0961167
-0.0955068
-0.0955909
-0.0963375
-0.0975512
-0.0989598
-0.100458
-0.10214
-0.104174
-0.106814
-0.11026
-0.114499
-0.119365
-0.124589
-0.129773
-0.134536
-0.138442
-0.141086
-0.142085
-0.141061
-0.137632
-0.131456
-0.122236
-0.109913
-0.0946974
-0.0771951
-0.0583903
-0.0394361
-0.0214082
-0.00499963
0.00962611
0.0228248
0.0351996
0.0472599
0.0592042
0.0708417
0.0817255
0.0912384
0.0989453
0.104783
0.108938
0.111897
0.114231
0.116412
0.118786
0.121421
0.124188
0.12687
0.129068
0.130627
0.131351
0.131323
0.130651
0.129594
0.128375
0.127203
0.126128
0.125024
0.123717
0.122026
0.119826
0.117063
0.113759
0.110083
0.106149
0.102093
0.0980411
0.094093
0.0904432
0.087241
0.084643
0.0827416
0.0814538
0.0804935
0.0796577
0.0786549
0.077395
0.0758786
0.07438
0.0730677
0.0720293
0.0710727
0.0698655
0.0680152
0.0652182
0.0613929
0.056816
0.0518814
0.0471575
0.0430133
0.0397191
0.0372171
0.0353268
0.0337061
0.0319139
0.0296997
0.026848
0.0233223
0.0192944
0.0150874
0.0110085
0.00736797
0.00432945
0.00185878
-0.000147958
-0.00184028
-0.00318824
-0.00402226
-0.00412609
-0.00330942
-0.00161257
0.000567854
0.00251249
0.00356711
0.00319005
0.00136461
-0.00152093
-0.00469719
-0.00741396
-0.00909808
-0.00954709
-0.00903881
-0.00806949
-0.00727928
-0.00717237
-0.00795495
-0.00952882
-0.011626
-0.0138932
-0.0159932
-0.0178098
-0.0192884
-0.0204491
-0.0213646
-0.0218762
-0.0218503
-0.0210051
-0.0190161
-0.0155616
-0.010482
-0.00369851
0.00462018
0.0140512
0.0240068
0.0337726
0.0426742
0.0503168
0.0567247
0.0621125
0.067023
0.0719762
0.0770802
0.0821723
0.0866955
0.0899606
0.0913571
0.0906514
0.0879614
0.0836992
0.0784627
0.0728579
0.0675873
0.0633676
0.0610864
0.0616828
0.0658173
0.0733559
0.0831552
0.0931373
0.100557
0.102931
0.0988103
0.0881804
0.0724487
0.0539686
0.0351665
0.0178245
0.00290526
-0.00950357
-0.0196939
-0.0280738
-0.0348792
-0.0402954
-0.0444917
-0.0477734
-0.050433
-0.0528553
-0.0552657
-0.0577467
-0.0601022
-0.0621497
-0.063692
-0.0645309
-0.0644561
-0.0633525
-0.0612358
-0.0582952
-0.0549056
-0.0518462
-0.0503771
-0.0522325
-0.0595064
-0.0740749
-0.0970739
-0.128137
-0.164569
-0.200826
-0.228805
-0.238436
-0.218746
-0.159261
-0.0522272
0.104896
0.306514
0.536726
0.768704
0.9678
1.09804
1.13126
1.05586
0.882005
0.640477
0.375007
0.130213
-0.0599364
-0.179796
-0.232843
-0.236521
-0.213869
-0.18536
-0.163749
-0.153394
-0.152562
-0.156979
-0.162588
-0.166969
-0.169499
-0.170554
-0.170763
-0.17059
-0.170371
-0.170175
-0.170074
-0.17007
-0.170025
-0.169701
-0.168845
-0.167285
-0.165097
-0.162497
-0.15987
-0.15752
-0.155522
-0.153726
-0.151861
-0.149636
-0.147032
-0.144216
-0.141589
-0.139418
-0.137709
-0.13619
-0.134466
-0.132036
-0.128783
-0.124969
-0.121179
-0.118111
-0.116378
-0.11613
-0.117257
-0.119245
-0.12153
-0.123617
-0.125187
-0.126103
-0.126329
-0.125922
-0.124931
-0.123393
-0.121411
-0.119098
-0.116622
-0.114159
-0.11188
-0.10982
-0.108093
-0.106742
-0.105705
-0.105043
-0.104666
-0.104455
-0.104216
-0.103832
-0.103142
-0.102285
-0.101328
-0.10062
-0.100554
-0.101432
-0.103439
-0.106567
-0.110604
-0.115159
-0.11965
-0.123485
-0.125973
-0.126548
-0.124784
-0.120411
-0.113288
-0.103516
-0.091293
-0.0771447
-0.0617898
-0.0460306
-0.0306808
-0.0164003
-0.00351022
0.00800675
0.0183747
0.0280187
0.0371997
0.0461383
0.0548704
0.0631776
0.0708747
0.077699
0.0834538
0.0881345
0.0917497
0.0945029
0.0966725
0.0985748
0.10048
0.102584
0.105053
0.107855
0.110805
0.113677
0.116116
0.117842
0.118666
0.118549
0.117571
0.115828
0.113494
0.110691
0.10751
0.104009
0.100247
0.0962733
0.0921054
0.0878736
0.0837372
0.0798488
0.0764318
0.073593
0.0713243
0.0694607
0.0677508
0.0660063
0.0640721
0.0620047
0.0599384
0.0579935
0.0562601
0.0546111
0.0528421
0.0507756
0.0483049
0.0455829
0.0428747
0.0404149
0.0383577
0.0366147
0.0347904
0.0324337
0.0291506
0.0247026
0.0191717
0.013011
0.0067463
0.0010385
-0.00360908
-0.00689039
-0.00869864
-0.00922068
-0.00877908
-0.00774177
-0.00647866
-0.00525887
-0.00427536
-0.00366146
-0.00345764
-0.00364451
-0.00413548
-0.00487448
-0.00580124
-0.00681682
-0.00782262
-0.00877551
-0.00961855
-0.0103483
-0.0111193
-0.0120938
-0.0134545
-0.0153367
-0.0175787
-0.0198789
-0.0217913
-0.0229219
-0.0231683
-0.0225685
-0.0214919
-0.0204013
-0.0196628
-0.0193928
-0.019566
-0.0198516
-0.0198081
-0.0191307
-0.0174421
-0.0144701
-0.0101643
-0.00447513
0.00238377
0.0100372
0.0179781
0.0256122
0.0323035
0.0376066
0.0413775
0.0438984
0.0456785
0.0474197
0.0498033
0.0531605
0.0576178
0.0626878
0.0677127
0.0719884
0.0749568
0.0763755
0.0763733
0.075223
0.0732903
0.0710099
0.068796
0.0670697
0.0664238
0.067142
0.0690611
0.071415
0.0727398
0.0713583
0.065988
0.0561555
0.0424993
0.0265261
0.0101208
-0.00504585
-0.0180029
-0.0284409
-0.0367212
-0.0432348
-0.0483555
-0.0521798
-0.0547056
-0.0559534
-0.0560688
-0.0553358
-0.0541667
-0.0529487
-0.0520067
-0.0515141
-0.0515455
-0.0521578
-0.053237
-0.0546409
-0.0559777
-0.056892
-0.057093
-0.0565149
-0.055435
-0.054805
-0.0562686
-0.061951
-0.0741372
-0.0947054
-0.124366
-0.161551
-0.201615
-0.236639
-0.255647
-0.245726
-0.193965
-0.0905657
0.067387
0.272421
0.504564
0.732184
0.916852
1.02212
1.02367
0.917583
0.722862
0.477264
0.226806
0.0129815
-0.137953
-0.219581
-0.24288
-0.229026
-0.200457
-0.173855
-0.157229
-0.151297
-0.152617
-0.157044
-0.161597
-0.164983
-0.167149
-0.168436
-0.169065
-0.168976
-0.168083
-0.166288
-0.163662
-0.160261
-0.156394
-0.152459
-0.148942
-0.146255
-0.144676
-0.144148
-0.144323
-0.144706
-0.144834
-0.144434
-0.143394
-0.141814
-0.139798
-0.137381
-0.134484
-0.130981
-0.126801
-0.122126
-0.117394
-0.113311
-0.110595
-0.109671
-0.11051
-0.112561
-0.114848
-0.116435
-0.116499
-0.114785
-0.111593
-0.107633
-0.103708
-0.100495
-0.0983809
-0.0973023
-0.0970125
-0.0970718
-0.097095
-0.096766
-0.0959585
-0.0946392
-0.0928952
-0.0908259
-0.0885286
-0.0860983
-0.0836858
-0.0814436
-0.0795232
-0.0782248
-0.0777518
-0.0783126
-0.0799775
-0.0825495
-0.0857278
-0.0890903
-0.0922094
-0.0948744
-0.0969981
-0.0985919
-0.0996962
-0.100368
-0.100561
-0.100204
-0.0991897
-0.0975721
-0.0952998
-0.0922466
-0.0881545
-0.0826049
-0.0751808
-0.0657157
-0.0544383
-0.0420639
-0.0296518
-0.018204
-0.00842138
-0.000395566
0.00639429
0.0126927
0.0192846
0.026519
0.0342688
0.0421601
0.0497793
0.0568809
0.0634625
0.0696738
0.0756212
0.0812883
0.0863775
0.0907309
0.0941786
0.0967882
0.098736
0.100248
0.101439
0.102281
0.102652
0.102393
0.101456
0.0999388
0.0980261
0.0959276
0.0938269
0.0918475
0.0899235
0.0879491
0.0858016
0.083358
0.0805888
0.0774424
0.0739854
0.0702864
0.0664101
0.0623222
0.0580836
0.0537082
0.0493752
0.045401
0.0423014
0.0406079
0.0406215
0.0422818
0.0450452
0.0480363
0.0501769
0.0506385
0.0490039
0.0454088
0.0403112
0.0343505
0.0280317
0.0216887
0.0154545
0.00944865
0.00381901
-0.00103349
-0.00465624
-0.00668057
-0.00693863
-0.00564656
-0.00331163
-0.000624011
0.00182182
0.00355741
0.00450836
0.00472429
0.00441548
0.00370796
0.00256696
0.000791116
-0.00185316
-0.00556859
-0.0103373
-0.0158865
-0.0216621
-0.0269846
-0.0311759
-0.0338182
-0.0348146
-0.0344376
-0.0332142
-0.0318109
-0.0307351
-0.0301646
-0.0300732
-0.030069
-0.0298032
-0.0290428
-0.0279182
-0.0266814
-0.0257888
-0.0254407
-0.0255901
-0.0257292
-0.0251148
-0.0229315
-0.0186159
-0.0120723
-0.00367948
0.00573387
0.015114
0.0233296
0.0295752
0.0334646
0.0351245
0.0351066
0.0343466
0.0339046
0.034706
0.0373817
0.0420694
0.0482747
0.0551416
0.0614996
0.0663521
0.0689481
0.0691905
0.0673361
0.0639691
0.0597292
0.0552576
0.0511721
0.0480312
0.046256
0.0457927
0.0461279
0.0460304
0.0440265
0.0386395
0.0289529
0.015001
-0.00200188
-0.0202041
-0.0373742
-0.0516391
-0.0618215
-0.06749
-0.0689795
-0.0671692
-0.0632408
-0.0585215
-0.0540368
-0.0506919
-0.0489711
-0.0490007
-0.0506413
-0.0534014
-0.0567087
-0.0598602
-0.0622313
-0.0632559
-0.0626485
-0.0604052
-0.0571814
-0.0544681
-0.0545136
-0.0599904
-0.0734011
-0.0961609
-0.127687
-0.164344
-0.199386
-0.223424
-0.225655
-0.195457
-0.124073
-0.0064891
0.156602
0.357346
0.579884
0.800601
0.990501
1.11967
1.16368
1.11019
0.963567
0.745359
0.490068
0.236887
0.0202285
-0.137869
-0.231093
-0.267501
-0.264321
-0.241061
-0.213782
-0.19235
-0.180279
-0.176641
-0.178361
-0.182416
-0.186606
-0.189897
-0.191911
-0.192477
-0.191646
-0.189411
-0.185948
-0.181449
-0.176279
-0.170869
-0.165839
-0.161732
-0.159044
-0.158028
-0.158585
-0.160354
-0.162785
-0.16524
-0.167222
-0.168401
-0.168661
-0.168002
-0.166492
-0.164212
-0.161416
-0.158308
-0.155275
-0.152626
-0.150587
-0.14936
-0.148885
-0.149148
-0.149881
-0.150795
-0.151472
-0.151485
-0.150431
-0.148119
-0.144583
-0.140205
-0.135676
-0.131716
-0.128976
-0.127668
-0.127514
-0.127914
-0.128179
-0.127642
-0.126062
-0.1236
-0.120701
-0.117903
-0.115634
-0.114173
-0.113693
-0.114307
-0.116084
-0.118957
-0.122732
-0.127009
-0.131189
-0.134699
-0.137148
-0.138308
-0.138301
-0.137496
-0.136385
-0.135444
-0.135093
-0.13561
-0.137084
-0.139297
-0.141728
-0.143746
-0.144422
-0.143006
-0.13887
-0.131777
-0.121911
-0.109943
-0.0968993
-0.0838182
-0.0716648
-0.0608752
-0.0513696
-0.0424866
-0.0332369
-0.0227979
-0.0107629
0.00257912
0.0162282
0.0291106
0.0403527
0.0496993
0.0576164
0.0648982
0.072253
0.079829
0.0871815
0.0936543
0.0985989
0.102066
0.10457
0.106979
0.109927
0.11351
0.11724
0.120282
0.121928
0.121895
0.120496
0.118307
0.115897
0.113631
0.111672
0.109934
0.108558
0.10764
0.107222
0.107134
0.106918
0.105963
0.103828
0.100471
0.0963525
0.0921815
0.0886326
0.0859287
0.0839124
0.082012
0.0796627
0.0765794
0.0727945
0.0686293
0.0645292
0.0607987
0.0574819
0.0544968
0.051641
0.048777
0.0458312
0.0429269
0.0402438
0.037952
0.0362102
0.0350133
0.0342366
0.0336803
0.0329691
0.031789
0.0297973
0.0268688
0.0230495
0.0186044
0.0138487
0.00923333
0.00518259
0.00198989
-2.17858e-5
-0.00068817
3.69684e-5
0.00204208
0.00508365
0.00883312
0.0127837
0.0164899
0.0196089
0.021851
0.0231346
0.0234158
0.022782
0.0213221
0.0191424
0.0163826
0.0131352
0.00954506
0.00578089
0.00194902
-0.00179271
-0.00534656
-0.00871816
-0.0119159
-0.0149325
-0.0176059
-0.019719
-0.0209025
-0.0208132
-0.0192003
-0.0159311
-0.0110948
-0.00481458
0.00268274
0.0110368
0.0198344
0.0285522
0.0366371
0.0435558
0.0490911
0.0533558
0.0567931
0.060137
0.0640338
0.0688669
0.0746558
0.0809775
0.0871144
0.0924289
0.0963439
0.0985847
0.0990786
0.0979798
0.0955595
0.0922106
0.0885536
0.0853717
0.0833204
0.0826993
0.0830841
0.0834295
0.0822759
0.0781355
0.0701135
0.0581469
0.043054
0.0263651
0.00975455
-0.00530828
-0.0179333
-0.0277546
-0.0348004
-0.0393878
-0.0418935
-0.0427365
-0.0423125
-0.0410296
-0.0392031
-0.0371098
-0.0350305
-0.0331312
-0.0315247
-0.0303457
-0.0297314
-0.0297834
-0.0304776
-0.0316424
-0.0328981
-0.0338465
-0.0342494
-0.0340866
-0.0337283
-0.0340491
-0.0362639
-0.0418402
-0.0523037
-0.0686956
-0.0916169
-0.120407
-0.152649
-0.183607
-0.206165
-0.211252
-0.18875
-0.128969
-0.0245817
0.126893
0.320281
0.540902
0.764121
0.957682
1.08752
1.12597
1.06013
0.897289
0.66486
0.403666
0.157211
-0.0397679
-0.169268
-0.232002
-0.242972
-0.224084
-0.195787
-0.171741
-0.157425
-0.152142
-0.152247
-0.154016
-0.1552
-0.155214
-0.154458
-0.153585
-0.152769
-0.151993
-0.151011
-0.149715
-0.148092
-0.14632
-0.144617
-0.143052
-0.141675
-0.140197
-0.138358
-0.135949
-0.132957
-0.129515
-0.126038
-0.123039
-0.120926
-0.119889
-0.119867
-0.120495
-0.121288
-0.121715
-0.1215
-0.120529
-0.118886
-0.116775
-0.114421
-0.111847
-0.109077
-0.105979
-0.102551
-0.0989099
-0.0953441
-0.0922243
-0.0897871
-0.0881523
-0.0871754
-0.0865916
-0.086074
-0.0854237
-0.0846293
-0.0838546
-0.0833301
-0.0833377
-0.0840046
-0.0852843
-0.0869638
-0.0887721
-0.0903275
-0.0914188
-0.0919988
-0.0921992
-0.0923839
-0.0929266
-0.0940286
-0.0956919
-0.0976739
-0.0995487
-0.100968
-0.101699
-0.10185
-0.101785
-0.102088
-0.10331
-0.105818
-0.109595
-0.114259
-0.119109
-0.123302
-0.1259
-0.126216
-0.123843
-0.118616
-0.110805
-0.100967
-0.0899849
-0.0788519
-0.0685524
-0.0598625
-0.0531428
-0.0482361
-0.044632
-0.0415262
-0.0380346
-0.033404
-0.0271469
-0.019049
-0.00919066
0.00212506
0.014498
0.0274676
0.0405864
0.0534265
0.0656368
0.0769818
0.0873176
0.096602
0.104898
0.11217
0.118363
0.123339
0.126972
0.129172
0.130023
0.129846
0.129086
0.128083
0.127231
0.126583
0.125978
0.125183
0.123917
0.122009
0.119496
0.116552
0.113323
0.110001
0.106635
0.103209
0.099887
0.0969081
0.0945883
0.0932569
0.0930012
0.0935624
0.0944651
0.095168
0.0951714
0.0943559
0.092817
0.090898
0.0888927
0.0870515
0.0853703
0.0838129
0.0822403
0.0805332
0.07856
0.0762746
0.0736143
0.0705475
0.067219
0.0637116
0.0601997
0.0568177
0.0535832
0.050454
0.047404
0.044456
0.0417469
0.0395169
0.0379605
0.0370319
0.0366064
0.0362993
0.0358412
0.0350006
0.0337472
0.0321647
0.0303709
0.0284201
0.0263463
0.0241114
0.0218404
0.0196935
0.0179141
0.0167147
0.0161427
0.0160262
0.0159973
0.0156821
0.0147777
0.0132327
0.0111429
0.00889143
0.00680957
0.00526528
0.00428891
0.00381342
0.0035969
0.00344957
0.00312007
0.00252766
0.00158617
0.000286685
-0.00131721
-0.00313301
-0.00505426
-0.00689212
-0.00854495
-0.00993415
-0.0111122
-0.0122323
-0.0134025
-0.0145369
-0.0154526
-0.0157207
-0.0149779
-0.0128999
-0.00927509
-0.00414173
0.00239256
0.0100049
0.0185327
0.027623
0.0368634
0.045778
0.0540356
0.0612743
0.0675707
0.0731884
0.0784734
0.0835992
0.0884687
0.0925552
0.0952162
0.095879
0.0942493
0.0905648
0.0853445
0.0791919
0.0726914
0.0662329
0.060145
0.0548921
0.0511625
0.049752
0.051296
0.0558099
0.0622587
0.0687301
0.0729426
0.0727903
0.0669805
0.0556575
0.0401328
0.022495
0.00497375
-0.010664
-0.0233566
-0.0326723
-0.0387614
-0.0420635
-0.0431364
-0.0426404
-0.0412675
-0.0397446
-0.0386632
-0.0384612
-0.0393346
-0.0411727
-0.0436832
-0.0464552
-0.049167
-0.0515619
-0.0535701
-0.0552011
-0.0564933
-0.057418
-0.0578146
-0.0575148
-0.056564
-0.0552462
-0.0541626
-0.0543098
-0.0570416
-0.0639388
-0.0765346
-0.0959085
-0.122159
-0.153811
-0.18736
-0.216861
-0.23456
-0.23196
-0.201022
-0.135357
-0.0308318
0.113676
0.295463
0.506537
0.732355
0.95096
1.13396
1.2507
1.27524
1.1945
1.01449
0.761408
0.475984
0.203443
-0.018475
-0.16845
-0.244834
-0.262487
-0.244892
-0.215302
-0.190129
-0.176705
-0.174829
-0.180255
-0.188144
-0.19504
-0.199619
-0.201986
-0.202829
-0.202694
-0.201829
-0.20038
-0.198365
-0.19597
-0.193332
-0.190615
-0.187898
-0.185287
-0.182754
-0.180375
-0.1781
-0.176009
-0.17405
-0.172159
-0.170301
-0.168497
-0.166797
-0.165352
-0.164303
-0.163654
-0.163272
-0.163007
-0.162539
-0.161593
-0.16003
-0.157796
-0.155034
-0.151891
-0.148624
-0.145391
-0.142444
-0.13983
-0.13758
-0.135734
-0.134237
-0.133038
-0.132169
-0.131575
-0.131277
-0.131189
-0.1312
-0.131195
-0.131098
-0.130958
-0.130869
-0.13112
-0.131737
-0.132643
-0.133614
-0.134293
-0.134366
-0.133714
-0.132356
-0.130507
-0.128449
-0.126438
-0.124588
-0.12308
-0.121979
-0.121285
-0.121163
-0.121617
-0.122662
-0.124249
-0.126224
-0.128358
-0.130351
-0.131705
-0.131886
-0.130294
-0.126359
-0.119558
-0.109788
-0.0972662
-0.082608
-0.0667671
-0.050855
-0.0359579
-0.0228853
-0.0120026
-0.0032375
0.00390324
0.0101312
0.0162225
0.022772
0.0300447
0.0380496
0.0463516
0.0544611
0.0618836
0.0682667
0.0735112
0.0778002
0.0814427
0.0849248
0.0886519
0.0929238
0.0977485
0.102871
0.107838
0.112189
0.11548
0.117446
0.117998
0.11716
0.115051
0.111898
0.10806
0.104015
0.100452
0.098008
0.0971459
0.0978878
0.0998831
0.10237
0.104542
0.105787
0.105815
0.10474
0.102949
0.100865
0.0988848
0.0971462
0.0956314
0.09423
0.0928235
0.0913004
0.0895745
0.0875838
0.0852699
0.0826058
0.0795759
0.0761931
0.0724075
0.0682478
0.0637302
0.0590368
0.0543426
0.0499668
0.0462049
0.0432114
0.0410356
0.0394989
0.0383122
0.0371908
0.035887
0.0342283
0.0321891
0.0298133
0.0272389
0.0245329
0.0217614
0.018891
0.0158544
0.0126141
0.00915354
0.0055829
0.00208132
-0.00118899
-0.00412454
-0.00672355
-0.0090704
-0.0114043
-0.0136928
-0.0160066
-0.0182403
-0.0202013
-0.0217011
-0.0226389
-0.0229937
-0.022862
-0.0224667
-0.0220186
-0.0216528
-0.0214634
-0.0214424
-0.0215236
-0.0216943
-0.0219203
-0.0222969
-0.0228714
-0.0236957
-0.0247419
-0.025827
-0.0266907
-0.0270815
-0.0267945
-0.0257724
-0.0240145
-0.0218397
-0.0194303
-0.0170023
-0.0146911
-0.01254
-0.0105581
-0.00881422
-0.00747917
-0.00672845
-0.00660282
-0.00700994
-0.00750921
-0.00752086
-0.00635404
-0.00337631
0.00154783
0.0082376
0.0159759
0.0239154
0.0313176
0.0375765
0.0424675
0.0461304
0.0489412
0.0514179
0.0541015
0.0575552
0.0620308
0.0675113
0.0735318
0.0792149
0.0835877
0.0858279
0.0855891
0.0830887
0.0790666
0.0744882
0.0703691
0.0674624
0.0663142
0.0670244
0.0693023
0.0722873
0.0746917
0.0749369
0.0715402
0.0636937
0.0514369
0.0359613
0.0191146
0.00299245
-0.010661
-0.0209368
-0.0277743
-0.0318795
-0.0341371
-0.0353919
-0.0362242
-0.0368693
-0.0374386
-0.0378814
-0.0382154
-0.0384526
-0.0387594
-0.0390929
-0.0394819
-0.0400072
-0.0406331
-0.0413224
-0.0420959
-0.0429234
-0.0438384
-0.0449992
-0.0466974
-0.04973
-0.055267
-0.064715
-0.0794923
-0.100541
-0.127585
-0.158651
-0.189587
-0.21404
-0.224132
-0.211656
-0.169197
-0.0915478
0.0232762
0.173282
0.352503
0.551293
0.757652
0.958426
1.1399
1.28835
1.39025
1.43281
1.40554
1.30289
1.12745
0.892421
0.621502
0.345504
0.0960988
-0.101465
-0.234007
-0.302375
-0.319162
-0.303455
-0.274522
-0.246866
-0.228134
-0.219696
-0.219156
-0.222889
-0.227885
-0.232345
-0.235623
-0.23772
-0.238802
-0.239027
-0.238506
-0.237381
-0.235746
-0.233685
-0.231189
-0.228242
-0.224875
-0.221235
-0.21755
-0.214073
-0.21095
-0.208259
-0.205913
-0.203872
-0.202199
-0.200906
-0.20015
-0.199922
-0.200096
-0.200322
-0.20028
-0.199721
-0.198653
-0.197368
-0.196165
-0.195324
-0.194867
-0.194512
-0.193934
-0.192815
-0.191064
-0.188855
-0.186554
-0.18453
-0.183059
-0.182133
-0.181656
-0.181356
-0.181212
-0.181271
-0.181658
-0.182589
-0.183981
-0.18562
-0.187007
-0.187688
-0.187395
-0.186153
-0.184273
-0.182217
-0.180377
-0.178956
-0.177907
-0.177091
-0.176341
-0.175686
-0.175265
-0.175296
-0.175931
-0.177162
-0.178786
-0.180473
-0.181781
-0.182274
-0.181475
-0.178903
-0.174063
-0.166534
-0.156119
-0.142966
-0.127615
-0.110989
-0.0941197
-0.0779695
-0.0632986
-0.0505035
-0.0397352
-0.0309593
-0.0239905
-0.0184937
-0.0140228
-0.00993655
-0.00553759
-0.00016259
0.0066509
0.0150009
0.0245313
0.0346638
0.0445874
0.053627
0.0614412
0.0680493
0.0737573
0.0789482
0.0839229
0.0888055
0.0934107
0.0974837
0.100757
0.102962
0.104013
0.103905
0.102716
0.100665
0.0981496
0.0955936
0.0934734
0.0921467
0.0917621
0.0922587
0.093363
0.0946955
0.095951
0.0967966
0.097078
0.0967178
0.0957168
0.094201
0.0923058
0.0902339
0.0881809
0.0862327
0.0844414
0.0827302
0.080858
0.0786668
0.0760137
0.0728349
0.0691328
0.0650215
0.0606862
0.0563888
0.0524145
0.0490104
0.0463608
0.0444307
0.0430294
0.0418385
0.0405404
0.0390594
0.037395
0.0356651
0.0339961
0.032321
0.0304988
0.0283317
0.025682
0.0227101
0.0196576
0.0168355
0.0145175
0.0128398
0.0117285
0.0110102
0.010472
0.0099309
0.00917546
0.00802598
0.00641914
0.00429438
0.00169362
-0.00129911
-0.00452711
-0.00777381
-0.0108065
-0.0133985
-0.0153274
-0.0163807
-0.0165621
-0.0159437
-0.0148025
-0.0134516
-0.0121786
-0.0112408
-0.0107095
-0.0106043
-0.0108117
-0.0113208
-0.0120996
-0.0131294
-0.0142986
-0.0154679
-0.0164373
-0.0169845
-0.0171103
-0.0168495
-0.0164578
-0.0161618
-0.0162265
-0.0166471
-0.0172544
-0.0177262
-0.0177254
-0.0170654
-0.0157277
-0.0140122
-0.0121631
-0.010329
-0.00832432
-0.00556955
-0.00142265
0.00466909
0.0126742
0.0220337
0.0317201
0.0407794
0.0484454
0.0546788
0.0598921
0.0646889
0.0695332
0.0743602
0.0786857
0.0817499
0.0830425
0.0822471
0.079773
0.0762111
0.0723215
0.0686523
0.0655377
0.0632038
0.061824
0.0616697
0.0628805
0.0650389
0.0672017
0.0677457
0.0649427
0.057411
0.0447642
0.0277787
0.00835034
-0.0111459
-0.0284313
-0.0418879
-0.0508145
-0.0553032
-0.056065
-0.0541172
-0.0506524
-0.0466844
-0.0432559
-0.0410024
-0.0402817
-0.0410382
-0.0429128
-0.0453744
-0.04794
-0.0503054
-0.052516
-0.0546568
-0.0567858
-0.0587345
-0.0602771
-0.0611954
-0.0614571
-0.0615797
-0.0625773
-0.0659093
-0.0732136
-0.0859768
-0.105143
-0.130825
-0.161625
-0.194179
-0.222748
-0.23932
-0.233892
-0.195494
-0.114463
0.0145895
0.189274
0.396536
0.611875
0.802012
0.931606
0.972328
0.91142
0.756906
0.536573
0.290861
0.0617812
-0.117912
-0.231992
-0.281988
-0.282797
-0.255368
-0.219279
-0.187747
-0.166575
-0.155597
-0.151695
-0.15121
-0.151505
-0.151502
-0.15105
-0.15028
-0.149209
-0.14763
-0.145269
-0.142016
-0.138073
-0.133961
-0.130223
-0.127379
-0.12562
-0.124802
-0.124531
-0.124427
-0.124148
-0.123587
-0.12297
-0.122532
-0.122533
-0.123058
-0.123908
-0.1248
-0.125289
-0.125089
-0.124184
-0.122847
-0.121382
-0.120108
-0.118986
-0.11766
-0.115596
-0.112419
-0.10808
-0.103028
-0.0980367
-0.093907
-0.0911655
-0.0898749
-0.0897007
-0.090088
-0.090572
-0.0909139
-0.0910875
-0.0912898
-0.0915713
-0.0918359
-0.0918029
-0.0910134
-0.0892293
-0.0865477
-0.0834345
-0.080656
-0.0790402
-0.0790617
-0.0807584
-0.0836834
-0.0871028
-0.0902238
-0.0925129
-0.093778
-0.0941413
-0.0939122
-0.0934777
-0.0931251
-0.0931577
-0.0936991
-0.0948987
-0.0968382
-0.0995936
-0.103048
-0.106906
-0.110742
-0.113954
-0.115864
-0.115844
-0.113405
-0.108297
-0.10064
-0.0908806
-0.0797944
-0.0683185
-0.0573518
-0.0475774
-0.0392242
-0.0320157
-0.0252823
-0.0181618
-0.0098897
-0.000116854
0.010888
0.0224013
0.0334059
0.0429508
0.0504527
