0.0247286
0.0312129
0.0371605
0.0430846
0.0493677
0.0561986
0.0633289
0.0703553
0.0767324
0.0819368
0.0855871
0.0875067
0.0876161
0.0859559
0.0826447
0.0777893
0.0716696
0.0647624
0.0578329
0.0519694
0.0481178
0.0467948
0.0477558
0.0497728
0.050968
0.0493568
0.0435764
0.0332971
0.0194456
0.00380557
-0.011458
-0.0246057
-0.0346496
-0.0415448
-0.0458834
-0.048439
-0.0499167
-0.050834
-0.051441
-0.051852
-0.0522084
-0.0527589
-0.0537112
-0.0551299
-0.0568286
-0.0585452
-0.0599366
-0.0607405
-0.0608871
-0.0604134
-0.0594808
-0.0583246
-0.0571674
-0.056331
-0.0564871
-0.0586444
-0.0642298
-0.0748401
-0.0918
-0.115646
-0.145189
-0.176967
-0.204989
-0.220669
-0.213151
-0.170881
-0.0840427
0.0519916
0.232781
0.442013
0.651538
0.825628
0.92927
0.93814
0.846752
0.671436
0.446574
0.21482
0.0150176
-0.127738
-0.206471
-0.230509
-0.218627
-0.191104
-0.16336
-0.143246
-0.132054
-0.127322
-0.125728
-0.124738
-0.123472
-0.122091
-0.121057
-0.120655
-0.120888
-0.121461
-0.122112
-0.122531
-0.122537
-0.122064
-0.121014
-0.119417
-0.11741
-0.115255
-0.113184
-0.111505
-0.110389
-0.109726
-0.109219
-0.108383
-0.106751
-0.1042
-0.100891
-0.0972801
-0.0939065
-0.091298
-0.0895774
-0.0886495
-0.0882611
-0.0880862
-0.0878865
-0.0875716
-0.0870096
-0.0860688
-0.0846116
-0.082519
-0.0799544
-0.0772842
-0.0750463
-0.0736628
-0.0733019
-0.0737485
-0.0744416
-0.0747373
-0.074146
-0.0725372
-0.0702457
-0.0676361
-0.065153
-0.063007
-0.0612045
-0.0596748
-0.0585333
-0.0579831
-0.0583623
-0.0600056
-0.0628818
-0.0667343
-0.0710195
-0.0751696
-0.0788012
-0.0818275
-0.0845797
-0.0875608
-0.0911751
-0.0955871
-0.100616
-0.105792
-0.110584
-0.114536
-0.117546
-0.119731
-0.1212
-0.121967
-0.121609
-0.119372
-0.114365
-0.105807
-0.0934481
-0.0775639
-0.0590963
-0.0392428
-0.019513
-0.00108097
0.0151043
0.0285959
0.0394483
0.0479533
0.0547132
0.060371
0.0654088
0.0701822
0.0748451
0.0793693
0.0836792
0.0875694
0.0908696
0.0934641
0.0952419
0.0961904
0.0962956
0.0957253
0.094628
0.0932593
0.0920061
0.0911684
0.0910293
0.0916873
0.0931487
0.09511
0.0971662
0.0988071
0.0995848
0.0992248
0.0977038
0.0951643
0.0919184
0.0882242
0.0842907
0.0803239
0.0764253
0.072742
0.0694674
0.0667618
0.0646533
0.0630829
0.0619476
0.0610101
0.0601424
0.0592045
0.0581386
0.056834
0.0552307
0.0534121
0.0514942
0.0497579
0.0485557
0.0480849
0.0483085
0.0489712
0.0495046
0.049345
0.0480495
0.045486
0.0419436
0.0379645
0.0343081
0.0315269
0.0299301
0.0293537
0.0294339
0.0295824
0.0292428
0.0281692
0.0263945
0.0242816
0.0223348
0.0210357
0.0206884
0.0213048
0.0227165
0.0246149
0.0266556
0.0286495
0.0303824
0.0317029
0.0324309
0.0323356
0.0310986
0.0286563
0.0251434
0.0210898
0.0171311
0.0140291
0.0121658
0.0116695
0.0122012
0.013154
0.0139844
0.0142154
0.0137333
0.0127131
0.0114344
0.0101965
0.00917455
0.00852848
0.00841794
0.00924967
0.0114449
0.0153747
0.0212486
0.0288048
0.0374155
0.0462736
0.0547142
0.062295
0.0690121
0.0750764
0.0807096
0.0858667
0.090257
0.0933564
0.0946626
0.0940646
0.0917662
0.0883736
0.0846586
0.0811835
0.0782786
0.0760076
0.074412
0.0735406
0.0738041
0.0754988
0.0786847
0.0827604
0.086353
0.0877513
0.0853127
0.0780527
0.0661714
0.0509901
0.0344913
0.0188145
0.0055478
-0.00454038
-0.0116034
-0.0163345
-0.0196506
-0.0224461
-0.025264
-0.0284768
-0.0320787
-0.0358574
-0.0394124
-0.0422446
-0.0439362
-0.0443286
-0.0436434
-0.0424584
-0.0414853
-0.0412908
-0.0419438
-0.0431114
-0.0441391
-0.0445008
-0.0442288
-0.0440274
-0.0454517
-0.0504263
-0.0608447
-0.0780761
-0.102507
-0.133246
-0.167565
-0.200539
-0.22495
-0.231118
-0.207644
-0.143122
-0.0293857
0.134443
0.33817
0.558811
0.762568
0.911569
0.97365
0.932459
0.793636
0.58452
0.346633
0.123883
-0.0496923
-0.157971
-0.203613
-0.203237
-0.178861
-0.149902
-0.12824
-0.117639
-0.116085
-0.119352
-0.123643
-0.126727
-0.128067
-0.128061
-0.127327
-0.126268
-0.125086
-0.123816
-0.122373
-0.12065
-0.118475
-0.115803
-0.112661
-0.109323
-0.106085
-0.103274
-0.101136
-0.0997711
-0.099175
-0.0992356
-0.0996677
-0.100238
-0.10077
-0.100987
-0.100751
-0.100008
-0.0986644
-0.0967143
-0.094144
-0.0910585
-0.087478
-0.0835606
-0.0795247
-0.0756881
-0.0723517
-0.0697613
-0.0681089
-0.0673209
-0.0672812
-0.0677628
-0.0684818
-0.0693066
-0.0700731
-0.070679
-0.0710436
-0.0710747
-0.0707582
-0.0700761
-0.0690479
-0.0678616
-0.0666471
-0.0655704
-0.0647796
-0.0643099
-0.0641501
-0.0641442
-0.0642177
-0.0642506
-0.0643125
-0.0644869
-0.0650118
-0.0661512
-0.0680033
-0.0706643
-0.0740474
-0.0779232
-0.0820721
-0.0861146
-0.089856
-0.0931319
-0.0959603
-0.0983733
-0.100317
-0.101587
-0.101648
-0.0997106
-0.094972
-0.0867429
-0.074823
-0.0594374
-0.0414166
-0.0219978
-0.00242165
0.016027
0.0324399
0.0462949
0.0574275
0.066108
0.0728545
0.0782447
0.0827956
0.0868424
0.0904937
0.0936288
0.0960852
0.0976718
0.0983732
0.0982896
0.0976166
0.0965682
0.095295
0.0939659
0.092613
0.0912326
0.0898909
0.0884346
0.0867973
0.0850067
0.0830008
0.0809638
0.0790969
0.077513
0.0763248
0.0754832
0.0746637
0.0736696
0.0723212
0.070557
0.0684992
0.066371
0.0643488
0.0626056
0.061183
0.0599778
0.0587275
0.0571872
0.0551751
0.0525147
0.0492294
0.0454977
0.0415449
0.0377569
0.0344237
0.0317958
0.0300043
0.028968
0.0284642
0.02816
0.02768
0.0266821
0.0250824
0.0228769
0.0202729
0.0175303
0.0148794
0.0124772
0.0103671
0.00845948
0.00659573
0.0046768
0.00260821
0.000523532
-0.00145338
-0.00315639
-0.00438853
-0.00516528
-0.00555422
-0.00569422
-0.00567656
-0.00553459
-0.00535553
-0.00514408
-0.00504408
-0.0051922
-0.00579768
-0.00695361
-0.00863722
-0.0106091
-0.0124891
-0.0138006
-0.014152
-0.0134297
-0.011734
-0.00949538
-0.007286
-0.0056233
-0.00481509
-0.00491746
-0.00567045
-0.00670426
-0.00774273
-0.00851759
-0.00904737
-0.00947289
-0.0099142
-0.0104566
-0.0109596
-0.0110919
-0.0103652
-0.00826087
-0.00434995
0.00152868
0.00917458
0.0181055
0.0276438
0.0370728
0.0459688
0.0541719
0.0618128
0.0692323
0.0767424
0.0842349
0.0913328
0.0972899
0.101346
0.103008
0.102185
0.0991627
0.0945366
0.0890372
0.0832906
0.0778529
0.0733124
0.0701814
0.0690424
0.0700901
0.0728791
0.0762925
0.0786073
0.0779949
0.0730753
0.0633953
0.0494964
0.0329946
0.0158022
-0.000280571
-0.0140339
-0.0248849
-0.0327935
-0.038088
-0.0412113
-0.0426407
-0.0428612
-0.0424627
-0.0420001
-0.0419161
-0.0424725
-0.0437398
-0.045488
-0.0473607
-0.0491449
-0.0507209
-0.052045
-0.0532726
-0.0544676
-0.055528
-0.0562779
-0.0563432
-0.0554659
-0.0537136
-0.0515688
-0.0501917
-0.0512803
-0.0568351
-0.0687839
-0.0883704
-0.115836
-0.149698
-0.186085
-0.21852
-0.238026
-0.233517
-0.193146
-0.10664
0.030967
0.215667
0.431722
0.651313
0.83849
0.956996
0.980178
0.899681
0.729381
0.502505
0.262559
0.0509398
-0.103827
-0.191787
-0.22058
-0.209181
-0.179524
-0.149349
-0.128488
-0.119134
-0.118804
-0.123399
-0.12925
-0.134291
-0.137699
-0.139571
-0.140173
-0.139865
-0.138991
-0.137762
-0.136322
-0.134679
-0.132699
-0.130296
-0.127432
-0.124274
-0.121134
-0.118253
-0.115688
-0.113324
-0.1109
-0.108184
-0.105001
-0.101409
-0.0977144
-0.0943598
-0.0917389
-0.0901127
-0.0895318
-0.0896602
-0.0901071
-0.0904835
-0.0905292
-0.0901863
-0.089586
-0.0889015
-0.0882029
-0.0874383
-0.0863708
-0.0848085
-0.0826739
-0.0800961
-0.0773807
-0.0749087
-0.0730385
-0.0719005
-0.0713955
-0.0712016
-0.0709465
-0.0703706
-0.0693344
-0.0679196
-0.0663626
-0.0648651
-0.0635721
-0.062551
-0.0617729
-0.0611641
-0.0607753
-0.0605572
-0.0606368
-0.0610382
-0.0617833
-0.0628258
-0.064129
-0.0655718
-0.0670578
-0.0685376
-0.0699463
-0.0712827
-0.0725645
-0.0737552
-0.0748899
-0.0759595
-0.0768983
-0.0775216
-0.0775304
-0.0765426
-0.0740675
-0.0697677
-0.0634762
-0.0553532
-0.0458253
-0.0355012
-0.0250348
-0.0151639
-0.00616356
0.00180118
0.00884851
0.0153251
0.0216395
0.0281152
0.0349058
0.0419328
0.0489828
0.0558008
0.0621735
0.0680159
0.0732758
0.077987
0.0821496
0.0857797
0.0888629
0.0915107
0.0936993
0.0954669
0.0967446
0.0974195
0.0973807
0.0965457
0.0949202
0.0927267
0.090144
0.0874544
0.0849272
0.0826736
0.0807582
0.0790575
0.0773749
0.0755234
0.073293
0.0706829
0.0678779
0.0651213
0.0627887
0.0611023
0.0600895
0.0595171
0.0590415
0.0582137
0.0568763
0.055037
0.0529627
0.051029
0.0495258
0.0484965
0.0478373
0.0472417
0.0463954
0.0450701
0.0431451
0.0405812
0.0373543
0.0335037
0.0290678
0.0241877
0.0191971
0.0144032
0.0101177
0.00658422
0.00382513
0.00174506
0.000126963
-0.00123739
-0.00248818
-0.00360001
-0.00452184
-0.00518174
-0.00554785
-0.00569902
-0.00576982
-0.00581792
-0.00591054
-0.00599757
-0.00597707
-0.0057228
-0.00522293
-0.0045669
-0.00399166
-0.00379039
-0.00420639
-0.00536204
-0.00730722
-0.0097697
-0.0123986
-0.014853
-0.0168479
-0.0182701
-0.0191624
-0.0196567
-0.0199841
-0.020423
-0.0211723
-0.0223676
-0.0240827
-0.026158
-0.0282837
-0.0300375
-0.0309334
-0.0306539
-0.0291057
-0.0265325
-0.0233879
-0.020211
-0.0174401
-0.0153337
-0.0139977
-0.0132824
-0.012849
-0.0123043
-0.0111713
-0.00894967
-0.00518407
0.000264757
0.00730605
0.0153539
0.023617
0.031405
0.0381268
0.0436477
0.0482518
0.0524689
0.0569007
0.0619459
0.0675819
0.0734416
0.0788632
0.0831218
0.0856501
0.0862177
0.0849427
0.0822289
0.0786826
0.0748327
0.0712128
0.0683383
0.0667732
0.067141
0.0697554
0.0743755
0.0799343
0.0846702
0.0865701
0.0838932
0.0758665
0.0629231
0.0465431
0.0288067
0.0116881
-0.00332072
-0.0154739
-0.0247107
-0.0313661
-0.0359797
-0.0391791
-0.0415722
-0.0438187
-0.046468
-0.0497774
-0.0537364
-0.0578882
-0.0615939
-0.0641172
-0.0650232
-0.0643095
-0.0623543
-0.059824
-0.0574178
-0.0555006
-0.0541056
-0.0528993
-0.0515528
-0.0499045
-0.0481895
-0.0469971
-0.0474378
-0.0508064
-0.0585018
-0.0717092
-0.09111
-0.116856
-0.148112
-0.182448
-0.215468
-0.240696
-0.249443
-0.231578
-0.17692
-0.0778532
0.0673628
0.251415
0.456143
0.653545
0.810452
0.89613
0.890944
0.792851
0.619294
0.40306
0.183421
-0.004634
-0.138819
-0.213166
-0.236154
-0.224831
-0.197871
-0.169845
-0.148719
-0.136394
-0.131144
-0.129909
-0.130164
-0.130556
-0.130718
-0.130842
-0.131183
-0.131872
-0.132928
-0.134268
-0.13566
-0.136829
-0.137461
-0.137321
-0.136269
-0.134274
-0.131603
-0.128536
-0.125365
-0.122398
-0.119737
-0.117475
-0.11559
-0.113974
-0.112466
-0.110979
-0.109367
-0.107618
-0.105758
-0.103944
-0.102425
-0.101336
-0.100728
-0.10052
-0.100452
-0.100283
-0.0997921
-0.0989771
-0.0979191
-0.0968322
-0.095856
-0.0950951
-0.0944265
-0.0937152
-0.0927278
-0.0913206
-0.0895441
-0.0875539
-0.0855856
-0.0839491
-0.0829647
-0.082803
-0.0835129
-0.0848853
-0.0865531
-0.0880289
-0.0888356
-0.0887897
-0.0880341
-0.0869214
-0.0859206
-0.0853095
-0.0851266
-0.0850141
-0.0845551
-0.0834102
-0.0815493
-0.0793694
-0.0775787
-0.0768737
-0.0777932
-0.0804444
-0.0844529
-0.0889968
-0.0932041
-0.096123
-0.0970824
-0.0957528
-0.0920084
-0.0861408
-0.078551
-0.0698312
-0.0607047
-0.0519199
-0.0440816
-0.0376374
-0.032729
-0.0292697
-0.0269217
-0.0252823
-0.0238411
-0.0221281
-0.0197544
-0.0164222
-0.012031
-0.00670518
-0.000754907
0.00540612
0.0114476
0.0171603
0.022665
0.0281465
0.0338298
0.0398145
0.0459204
0.0518665
0.0572143
0.0616291
0.0649379
0.0671724
0.0685359
0.0693692
0.0700172
0.0708625
0.0721215
0.0738944
0.0759409
0.0779788
0.0795193
0.0802299
0.0799704
0.0787454
0.0767345
0.0741276
0.0710377
0.067573
0.0638002
0.0598855
0.0561162
0.052852
0.0503582
0.0488387
0.0482927
0.0485377
0.0492123
0.0498862
0.0501198
0.0495251
0.047876
0.0451598
0.0415651
0.0374302
0.033186
0.0291163
0.0254757
0.0223871
0.0198764
0.01804
0.0168515
0.0162612
0.0160265
0.015845
0.0153671
0.0144103
0.013007
0.0113285
0.00967062
0.00815467
0.00672977
0.00514503
0.00320123
0.000855331
-0.0017065
-0.00405464
-0.00582998
-0.00688065
-0.00739592
-0.00779359
-0.0084666
-0.00956337
-0.0109219
-0.0121559
-0.0127322
-0.0124089
-0.0111618
-0.00936245
-0.00753065
-0.00626601
-0.00587596
-0.00637416
-0.0075509
-0.00903777
-0.0106056
-0.0122122
-0.0139734
-0.0159974
-0.0182282
-0.0204081
-0.0220346
-0.0226632
-0.0220808
-0.0205498
-0.0186239
-0.0169033
-0.0159083
-0.0156879
-0.0159016
-0.0159366
-0.0151702
-0.0129641
-0.00907732
-0.00349194
0.00344021
0.011228
0.0192702
0.0269779
0.0339571
0.0400313
0.0452599
0.0499759
0.0545761
0.05936
0.0643381
0.0692845
0.0737148
0.0770703
0.0789898
0.0793171
0.0782027
0.0759992
0.0731826
0.0701469
0.0671858
0.0643688
0.061684
0.0588547
0.0557796
0.0523738
0.0489624
0.0461605
0.0447494
0.0452784
0.0476179
0.0507272
0.0528756
0.0520325
0.0466679
0.036363
0.0220291
0.00558579
-0.0105543
-0.0244413
-0.0351355
-0.0427536
-0.0481934
-0.0525956
-0.0567246
-0.0607767
-0.064346
-0.0668022
-0.0676856
-0.0669663
-0.0651917
-0.0631352
-0.0615595
-0.0608754
-0.061087
-0.0617976
-0.0624211
-0.0625058
-0.0619628
-0.0610378
-0.0603134
-0.0604952
-0.0623966
-0.0668815
-0.0748891
-0.087273
-0.104877
-0.127935
-0.155624
-0.185448
-0.213009
-0.231995
-0.234766
-0.21283
-0.157957
-0.0638041
0.0719957
0.245255
0.44325
0.644144
0.819242
0.938255
0.976536
0.922535
0.782367
0.57941
0.348889
0.12854
-0.0507991
-0.171936
-0.233355
-0.246407
-0.229082
-0.199625
-0.171628
-0.152229
-0.142702
-0.140762
-0.142755
-0.145504
-0.147152
-0.146972
-0.145103
-0.142101
-0.138533
-0.134899
-0.131509
-0.128519
-0.126022
-0.124109
-0.122804
-0.121969
-0.121442
-0.120846
-0.119924
-0.118398
-0.116202
-0.113435
-0.110223
-0.106786
-0.103307
-0.099906
-0.0966755
-0.0937803
-0.091441
-0.0898688
-0.089198
-0.0893215
-0.0900618
-0.0910702
-0.0920402
-0.0927297
-0.0930003
-0.0929163
-0.0924751
-0.0916945
-0.0905447
-0.0890392
-0.0872074
-0.0853368
-0.083729
-0.0827568
-0.0826436
-0.0832688
-0.0843475
-0.0853494
-0.0857088
-0.0850268
-0.0832014
-0.080441
-0.0771734
-0.073928
-0.0712306
-0.0695479
-0.0692078
-0.0701831
-0.0723753
-0.0754304
-0.0788339
-0.0821107
-0.0848626
-0.0868162
-0.0880298
-0.0886696
-0.0891426
-0.0899175
-0.0914457
-0.0941061
-0.0980109
-0.103035
-0.108567
-0.113783
-0.117742
-0.119592
-0.118808
-0.115178
-0.1089
-0.100452
-0.0905639
-0.0801882
-0.0702709
-0.0617854
-0.0554259
-0.0513273
-0.0491163
-0.0478266
-0.0463494
-0.043676
-0.0391065
-0.0325987
-0.024503
-0.0153917
-0.00597029
0.00324652
0.0119882
0.0201219
0.0275434
0.034249
0.0403444
0.0460789
0.0518057
0.0579806
0.064908
0.0726418
0.0809516
0.0892884
0.0970316
0.10359
0.108695
0.112298
0.114512
0.115546
0.115607
0.114822
0.113299
0.11128
0.108986
0.106581
0.104279
0.10223
0.100346
0.0985746
0.0968363
0.095086
0.0933658
0.0917773
0.0904938
0.089573
0.0890058
0.0886659
0.08834
0.0878028
0.0868477
0.0853284
0.0832602
0.0807462
0.0779489
0.0750255
0.0721038
0.0692075
0.0663584
0.0634965
0.0606454
0.0579255
0.0554593
0.0533275
0.0515569
0.0500747
0.0487878
0.0476861
0.0468751
0.046537
0.0467768
0.0475734
0.048713
0.0497433
0.0502717
0.0500254
0.0490284
0.0475028
0.0458624
0.0443653
0.0431685
0.0421707
0.0409927
0.0393275
0.0369443
0.0338238
0.0302138
0.0265411
0.0232367
0.0207301
0.0192622
0.0188201
0.019154
0.0198568
0.0203975
0.0203255
0.019445
0.0176716
0.0152266
0.0125901
0.010178
0.00841365
0.00744809
0.00738837
0.00803055
0.00915042
0.0104292
0.0115367
0.0122844
0.0124715
0.0120379
0.0109849
0.00938909
0.00737772
0.0051826
0.00296918
0.00103523
-0.000182548
-0.000128532
0.00171854
0.0058527
0.0123457
0.0207983
0.0304541
0.0402778
0.0493127
0.057025
0.0633556
0.0687666
0.0739234
0.079455
0.0856225
0.0922187
0.0986449
0.103958
0.107267
0.107802
0.105289
0.100002
0.0926308
0.0842312
0.0760399
0.0692597
0.064895
0.0636151
0.0654989
0.0698077
0.0751177
0.0793793
0.0805481
0.0770828
0.0684437
0.05525
0.0391308
0.0222238
0.00651928
-0.00659194
-0.0165375
-0.0234961
-0.0281131
-0.0311261
-0.0332933
-0.0350285
-0.0365152
-0.0378934
-0.0392056
-0.040614
-0.0423775
-0.0447288
-0.0476844
-0.0510917
-0.0544576
-0.0572146
-0.0588695
-0.0591054
-0.0579088
-0.055459
-0.052142
-0.0484287
-0.0448076
-0.0419375
-0.0408787
-0.0430518
-0.0501438
-0.063752
-0.0849233
-0.113539
-0.147636
-0.182947
-0.212829
-0.228554
-0.219905
-0.176258
-0.0884814
0.0479873
0.229884
0.443248
0.662632
0.853961
0.981358
1.01654
0.9479
0.785421
0.559312
0.312104
0.0867385
-0.0849546
-0.188991
-0.229859
-0.22507
-0.196899
-0.164743
-0.140474
-0.127888
-0.125224
-0.128398
-0.133385
-0.137682
-0.140295
-0.14133
-0.141191
-0.140221
-0.138687
-0.136829
-0.134746
-0.132637
-0.130464
-0.12827
-0.126013
-0.123607
-0.121073
-0.118427
-0.11575
-0.113181
-0.110815
-0.108698
-0.106837
-0.105164
-0.10363
-0.102219
-0.100901
-0.0996129
-0.0983875
-0.0970707
-0.095655
-0.0941805
-0.0926183
-0.0910521
-0.0895693
-0.0881118
-0.0867207
-0.0852767
-0.0838454
-0.0824941
-0.0813917
-0.0806804
-0.0802806
-0.0800804
-0.079773
-0.0789953
-0.0775801
-0.0755156
-0.0730616
-0.0706276
-0.0685629
-0.0671103
-0.0663235
-0.0660214
-0.0659496
-0.065994
-0.0660207
-0.0659652
-0.0659244
-0.0660177
-0.0663586
-0.0670175
-0.0679468
-0.0689971
-0.0699316
-0.0705977
-0.0709149
-0.070979
-0.0710944
-0.0716229
-0.0729035
-0.0751014
-0.0780208
-0.0812712
-0.0842548
-0.0862918
-0.08682
-0.085332
-0.0815579
-0.0755582
-0.0675814
-0.0581743
-0.0481634
-0.0384183
-0.0297281
-0.0226774
-0.0174185
-0.0136835
-0.0108688
-0.00826785
-0.00526629
-0.00144952
0.00332864
0.00897226
0.0152252
0.0217803
0.0283673
0.0347818
0.0409714
0.0469822
0.0529385
0.0590623
0.0655162
0.0722846
0.0792106
0.08591
0.0918162
0.0963953
0.0993722
0.100677
0.100682
0.0999187
0.098979
0.0981903
0.0975699
0.0968949
0.0958089
0.094094
0.0917033
0.0888514
0.08593
0.0832455
0.0809611
0.0790174
0.0772162
0.0752866
0.073088
0.0704969
0.0676559
0.064774
0.0620235
0.0596684
0.0577893
0.0563264
0.0551711
0.0541544
0.0530685
0.0518238
0.0503372
0.0485964
0.0466031
0.0443836
0.0419298
0.0391807
0.0361381
0.0328986
0.0296487
0.0266318
0.0241443
0.0223776
0.0212822
0.0206619
0.0200258
0.0190117
0.0172888
0.0147861
0.0119252
0.00916933
0.00706867
0.00603137
0.00602019
0.00666184
0.00740103
0.00773774
0.00741762
0.00654738
0.00549559
0.00455911
0.00378563
0.00292868
0.00164069
-0.000439018
-0.00330318
-0.00652693
-0.00957786
-0.0118723
-0.013205
-0.0137326
-0.0138965
-0.0141546
-0.0148249
-0.015876
-0.0171503
-0.018418
-0.0194484
-0.0201908
-0.0206839
-0.0208928
-0.020772
-0.0202288
-0.0192032
-0.0177524
-0.0161199
-0.0145304
-0.0131713
-0.0120919
-0.0112702
-0.0105611
-0.0099342
-0.00947623
-0.00928596
-0.00960687
-0.0104951
-0.0119357
-0.0136761
-0.0153939
-0.0166073
-0.0167338
-0.0151919
-0.0114355
-0.0052394
0.00320473
0.013171
0.0235215
0.0330429
0.04081
0.0465893
0.0507905
0.0545287
0.0589934
0.0650328
0.0726927
0.0811884
0.0891837
0.0952574
0.098428
0.0983769
0.0955294
0.0906729
0.0846805
0.0783299
0.0721725
0.0667739
0.062741
0.0607797
0.0613904
0.0644491
0.068939
0.0730828
0.0747345
0.0721601
0.06451
0.0521367
0.036557
0.0196776
0.0034312
-0.0107994
-0.0222555
-0.0307894
-0.0366047
-0.0400599
-0.041617
-0.0418458
-0.0414074
-0.0408691
-0.0405928
-0.0407675
-0.041215
-0.0417462
-0.042098
-0.0422788
-0.0424329
-0.0428253
-0.0436244
-0.0449042
-0.046478
-0.0480175
-0.0491099
-0.0494457
-0.0490103
-0.0480146
-0.0469158
-0.0464995
-0.0480142
-0.0530253
-0.0632322
-0.0800951
-0.104265
-0.135078
-0.169759
-0.203274
-0.228463
-0.236484
-0.217876
-0.163396
-0.0658966
0.0773718
0.261896
0.473701
0.688653
0.874992
0.999226
1.03462
0.9695
0.812266
0.590683
0.344858
0.116275
-0.0631277
-0.177901
-0.230178
-0.235212
-0.213684
-0.184457
-0.159712
-0.144355
-0.137762
-0.136858
-0.13849
-0.140324
-0.141236
-0.140964
-0.139594
-0.137431
-0.134903
-0.132448
-0.13047
-0.129045
-0.127997
-0.126903
-0.125301
-0.12299
-0.12007
-0.116897
-0.113942
-0.111604
-0.11011
-0.109359
-0.109019
-0.108622
-0.107738
-0.106126
-0.103827
-0.101125
-0.0984336
-0.0961501
-0.0945777
-0.093723
-0.0934132
-0.0932597
-0.0928781
-0.0919943
-0.0904636
-0.0883657
-0.0858686
-0.0832277
-0.0807428
-0.0787039
-0.077332
-0.0767756
-0.0770854
-0.0781457
-0.0797564
-0.0816133
-0.0833988
-0.0848294
-0.0857497
-0.0859867
-0.08564
-0.0847235
-0.0833799
-0.0818448
-0.0802678
-0.0788043
-0.0775147
-0.076378
-0.0752731
-0.0741097
-0.0727985
-0.0713225
-0.0698588
-0.068617
-0.0678224
-0.0677259
-0.0684947
-0.0702017
-0.0728137
-0.0762529
-0.080316
-0.084722
-0.0890761
-0.0927934
-0.0951862
-0.0955685
-0.0932306
-0.087927
-0.0797232
-0.069203
-0.0573533
-0.0453202
-0.034154
-0.0246257
-0.0168765
-0.0105499
-0.00492186
0.000781269
0.00720799
0.0146264
0.0228887
0.0315562
0.0400478
0.0478126
0.054464
0.0598539
0.064067
0.0673078
0.0698811
0.0719528
0.0736891
0.0751225
0.0762545
0.0771062
0.0776971
0.0780897
0.0784086
0.0787286
0.0789721
0.0791608
0.0791428
0.0788847
0.078369
0.0776621
0.0769096
0.0762578
0.0757755
0.0753947
0.0749593
0.0742183
0.0728753
0.070744
0.0677754
0.0642213
0.0603752
0.0567285
0.0536473
0.0514447
0.0500789
0.0492374
0.0484523
0.0472332
0.0452915
0.0425788
0.0394604
0.0363544
0.0336699
0.0316128
0.0301308
0.0290906
0.0281883
0.0272279
0.0261032
0.0247836
0.0232909
0.0215278
0.0194864
0.0171081
0.0144051
0.011371
0.00803983
0.00446157
0.000768088
-0.00286466
-0.00612503
-0.00861828
-0.0100496
-0.0102789
-0.00943542
-0.00784839
-0.00597249
-0.00427832
-0.00311867
-0.00256161
-0.00246822
-0.00270114
-0.00294829
-0.00305572
-0.00295537
-0.00261337
-0.00217081
-0.00179967
-0.00173166
-0.00213642
-0.00307336
-0.00441893
-0.00596873
-0.00753487
-0.00897951
-0.0102307
-0.0112481
-0.011978
-0.0124023
-0.0124456
-0.0121539
-0.0115557
-0.0108167
-0.0100863
-0.00940184
-0.00871695
-0.00798688
-0.00713461
-0.00627199
-0.00554933
-0.00513961
-0.00521288
-0.00567872
-0.00631782
-0.00685965
-0.00688533
-0.00600576
-0.00389734
-0.000278983
0.00492613
0.0115751
0.0192051
0.0271398
0.0346585
0.0412859
0.0469271
0.052066
0.0574021
0.0635156
0.070578
0.0780766
0.0850261
0.0903653
0.0932526
0.09338
0.0910226
0.0869195
0.082034
0.0773223
0.0737032
0.0720174
0.0726721
0.0754033
0.0792234
0.0823341
0.0825451
0.0779385
0.0676075
0.0519634
0.0326328
0.0121633
-0.00672914
-0.0220411
-0.0328051
-0.0391614
-0.0422178
-0.0434458
-0.0443112
-0.0458159
-0.0482701
-0.0513747
-0.0544302
-0.0567615
-0.057925
-0.0580316
-0.0574728
-0.0569332
-0.0569358
-0.0575435
-0.0584798
-0.0593926
-0.0599259
-0.060078
-0.0604336
-0.0622031
-0.0669368
-0.0763289
-0.0918713
-0.114518
-0.144096
-0.1786
-0.213533
-0.241456
-0.251917
-0.232312
-0.170419
-0.0579445
0.104999
0.306253
0.520647
0.713308
0.847041
0.892631
0.83796
0.692744
0.486559
0.260583
0.055705
-0.0984668
-0.189954
-0.224058
-0.217832
-0.192081
-0.164241
-0.144218
-0.134545
-0.132756
-0.134606
-0.136579
-0.136802
-0.1352
-0.132515
-0.129676
-0.127294
-0.125556
-0.124402
-0.123651
-0.123168
-0.122972
-0.123096
-0.123464
-0.123917
-0.123952
-0.12317
-0.121269
-0.118299
-0.114661
-0.111041
-0.108075
-0.106191
-0.105497
-0.105676
-0.106286
-0.106858
-0.106912
-0.10619
-0.104514
-0.101856
-0.0982892
-0.094113
-0.089743
-0.0856619
-0.0822659
-0.0798027
-0.078298
-0.0775529
-0.0772312
-0.0769677
-0.0765277
-0.0757877
-0.0747954
-0.0736914
-0.0726553
-0.0717493
-0.0710235
-0.0703239
-0.0695566
-0.0685618
-0.0671325
-0.0652933
-0.0631215
-0.0608779
-0.0587906
-0.0570667
-0.0558073
-0.0548786
-0.0541477
-0.0533562
-0.0524381
-0.0514853
-0.0506396
-0.0501775
-0.0503859
-0.0514477
-0.0535019
-0.0566161
-0.0607515
-0.0656924
-0.071168
-0.0767949
-0.0821402
-0.0867763
-0.0901795
-0.091781
-0.0910354
-0.0873748
-0.0806124
-0.0708405
-0.0588038
-0.0456105
-0.0325808
-0.0209504
-0.0114486
-0.00422831
0.00132713
0.00615554
0.0112571
0.0173912
0.0247813
0.0331662
0.0419172
0.0503894
0.0580665
0.0646893
0.0703525
0.0752608
0.0796569
0.0836187
0.0870617
0.0897676
0.0914566
0.0919301
0.0912438
0.0895919
0.0874196
0.0851935
0.0832442
0.0816106
0.0801722
0.0785609
0.0763023
0.0732499
0.0693893
0.0649872
0.0605301
0.0565373
0.0533844
0.0512944
0.0502456
0.0500931
0.050596
0.0515444
0.0526785
0.0538213
0.0546729
0.0548998
0.054273
0.0526877
0.0502543
0.0473318
0.0444164
0.0419745
0.0402553
0.0393097
0.0388099
0.0383033
0.0372982
0.0353405
0.0322854
0.0282328
0.0235978
0.0189177
0.0147775
0.0115643
0.009513
0.00845468
0.00810743
0.00801284
0.00784594
0.00733581
0.00651568
0.00547798
0.00438504
0.00326593
0.00213032
0.000848403
-0.000544704
-0.00193285
-0.00292503
-0.00305127
-0.00199234
0.000255605
0.0032847
0.006234
0.00816807
0.00839593
0.00667214
0.00342144
-0.000517639
-0.00418951
-0.00696293
-0.00849752
-0.00917952
-0.00948006
-0.00996385
-0.0109006
-0.0123306
-0.0140271
-0.0158357
-0.0176975
-0.0196827
-0.0216726
-0.0234012
-0.0241114
-0.0228451
-0.0187607
-0.0114189
-0.0011611
0.0108778
0.0232142
0.0343253
0.0431961
0.0495825
0.0539462
0.0571508
0.0601533
0.063589
0.0675845
0.0719858
0.0763244
0.0801405
0.0830088
0.0846337
0.0849023
0.0838286
0.0815604
0.0784258
0.0748804
0.0715586
0.069153
0.0681795
0.0687228
0.0702407
0.0716478
0.0715328
0.0684614
0.0615167
0.0505395
0.0363091
0.0202729
0.0041245
-0.0106046
-0.0228383
-0.0320695
-0.0383084
-0.0419221
-0.0436308
-0.0442649
-0.0446106
-0.0453586
-0.0468274
-0.0490069
-0.0516043
-0.0542802
-0.0566186
-0.0584498
-0.0596643
-0.0601986
-0.0598354
-0.058274
-0.0553096
-0.0510448
-0.0462469
-0.0424537
-0.0419286
-0.0471356
-0.0601462
-0.082172
-0.112727
-0.149083
-0.185805
-0.214824
-0.225473
-0.205534
-0.143326
-0.0309452
0.131726
0.333633
0.550918
0.749687
0.892619
0.948958
0.903793
0.763892
0.556711
0.322961
0.104993
-0.0648291
-0.17135
-0.217377
-0.218638
-0.19585
-0.167286
-0.144164
-0.130397
-0.124712
-0.123738
-0.124396
-0.124947
-0.125039
-0.125029
-0.125184
-0.125507
-0.125866
-0.126026
-0.125799
-0.125121
-0.124126
-0.122928
-0.121639
-0.120258
-0.118648
-0.116698
-0.114335
-0.111564
-0.108669
-0.106016
-0.103938
-0.102697
-0.102357
-0.102714
-0.103364
-0.103854
-0.103833
-0.103115
-0.101676
-0.0996503
-0.0973001
-0.0948645
-0.0924773
-0.0901261
-0.0876728
-0.0849505
-0.0817698
-0.07812
-0.0741897
-0.0703803
-0.0672488
-0.0652695
-0.064743
-0.0656939
-0.0677277
-0.070169
-0.0723368
-0.073522
-0.0733069
-0.0715763
-0.0685184
-0.0647149
-0.0607767
-0.0573479
-0.0549905
-0.0540237
-0.054542
-0.0564907
-0.0596924
-0.0638053
-0.0684518
-0.0731905
-0.0776175
-0.0814708
-0.0846599
-0.0872688
-0.0894753
-0.0915685
-0.0936682
-0.0958819
-0.0981676
-0.100476
-0.102656
-0.104547
-0.105823
-0.106024
-0.104563
-0.100758
-0.0941757
-0.0847124
-0.072695
-0.0589195
-0.0443445
-0.0298726
-0.0160854
-0.00314502
0.00902415
0.0206699
0.0319538
0.0427993
0.0530398
0.0624478
0.0708822
0.0783859
0.0850424
0.0910673
0.0965724
0.101554
0.105985
0.10987
0.113181
0.116028
0.118433
0.120341
0.121675
0.122267
0.122033
0.121126
0.119831
0.118585
0.117747
0.117416
0.11749
0.117556
0.117108
0.115752
0.113268
0.109744
0.105428
0.100796
0.0963223
0.0923811
0.08919
0.0869189
0.0854288
0.0845543
0.0839902
0.0834346
0.0826006
0.0812135
0.0790844
0.0762437
0.0729101
0.069408
0.0662318
0.0637181
0.0620742
0.0612784
0.0610472
0.0611597
0.0612267
0.0611161
0.0606946
0.05995
0.0588398
0.0573252
0.0553891
0.0530304
0.0504754
0.0479787
0.0458763
0.0443669
0.0434434
0.0428413
0.04201
0.0404565
0.0378982
0.0343632
0.0303208
0.0264777
0.0234888
0.0218881
0.0217597
0.0227704
0.0244688
0.0261302
0.0272319
0.0274163
0.026567
0.0247663
0.0223261
0.0195069
0.0165737
0.0138742
0.0115593
0.00976948
0.00854579
0.00779257
0.00732256
0.00687739
0.00625363
0.0054126
0.00447367
0.00370407
0.00341282
0.00379002
0.00486679
0.00630039
0.00770705
0.00879658
0.00944007
0.00987699
0.0107584
0.01279
0.0165652
0.0222551
0.0295376
0.0376246
0.0455525
0.0524858
0.0580636
0.0624791
0.0664143
0.0706628
0.0758574
0.0820688
0.0887913
0.0950319
0.099676
0.101948
0.101647
0.0993143
0.0959626
0.0927299
0.0903725
0.0890685
0.0884748
0.0880911
0.0874976
0.0867881
0.086503
0.0872329
0.0890208
0.0911317
0.0921156
0.0900916
0.0836006
0.072106
0.0562916
0.0378787
0.0190106
0.0016991
-0.0126469
-0.0234511
-0.0307921
-0.0352285
-0.0374423
-0.0382025
-0.0381998
-0.0379588
-0.0377991
-0.03793
-0.0383184
-0.0389004
-0.0395226
-0.0400566
-0.0402698
-0.0400254
-0.0392668
-0.0380684
-0.0368672
-0.0364211
-0.0380808
-0.0435792
-0.0546543
-0.0727025
-0.0981975
-0.130102
-0.165095
-0.19729
-0.21838
-0.218045
-0.185324
-0.110222
0.0135858
0.185756
0.396844
0.627253
0.848287
1.02668
1.13121
1.14032
1.04821
0.867583
0.627248
0.365452
0.120759
-0.0766558
-0.210482
-0.27968
-0.295484
-0.275945
-0.239874
-0.202155
-0.171767
-0.151929
-0.141806
-0.138603
-0.139234
-0.141436
-0.143876
-0.145854
-0.147014
-0.147154
-0.146212
-0.144324
-0.141893
-0.139408
-0.137158
-0.135323
-0.133815
-0.1324
-0.130847
-0.129157
-0.127598
-0.12642
-0.125905
-0.126169
-0.126959
-0.127846
-0.128279
-0.12776
-0.125963
-0.122776
-0.118484
-0.113519
-0.108478
-0.103816
-0.0998045
-0.0964786
-0.0935615
-0.0909188
-0.0884965
-0.086393
-0.0850273
-0.0847207
-0.0855319
-0.0871584
-0.0890367
-0.090486
-0.0910002
-0.0904378
-0.0891599
-0.0877654
-0.0869089
-0.0869478
-0.0878581
-0.0892483
-0.0904657
-0.0910263
-0.0905714
-0.0890802
-0.0867591
-0.0839885
-0.0811754
-0.0785715
-0.0764799
-0.0750065
-0.0742721
-0.0744615
-0.0757109
-0.0780602
-0.0814136
-0.0855417
-0.0899903
-0.0942981
-0.0979849
-0.100867
-0.102816
-0.103842
-0.103879
-0.102698
-0.0999087
-0.0951087
-0.0881283
-0.0790016
-0.0681904
-0.0563478
-0.0442497
-0.0325504
-0.0216477
-0.0116746
-0.00253848
0.00600824
0.0142508
0.022356
0.0303916
0.0382823
0.0457675
0.0526792
0.0588026
0.064117
0.0686256
0.0725638
0.0761989
0.0798241
0.0836941
0.0877895
0.0918872
0.0954827
0.0980955
0.0992522
0.0987928
0.0968974
0.0940748
0.0909322
0.0879782
0.0854256
0.0832946
0.0813592
0.0794355
0.0774491
0.0755553
0.0738381
0.0724131
0.0711221
0.0697512
0.0680321
0.0659158
0.0635234
0.0611764
0.0592337
0.0578618
0.0570136
0.0563662
0.0555676
0.0542873
0.0524296
0.0501469
0.0476415
0.0451522
0.0428031
0.0406266
0.0384397
0.0360537
0.0332745
0.0299249
0.026054
0.0216997
0.0171172
0.0126097
0.00854388
0.00522943
0.00282177
0.00125906
0.000340339
-0.000243091
-0.000787694
-0.00146032
-0.0022889
-0.00324149
-0.00422398
-0.00515954
-0.00598965
-0.00670275
-0.0073048
-0.00790545
-0.00861124
-0.0096315
-0.0110814
-0.012985
-0.0152811
-0.0176953
-0.0199477
-0.0218605
-0.0233488
-0.0244724
-0.0254039
-0.0263661
-0.0274347
-0.0285492
-0.0295925
-0.0304183
-0.0307676
-0.0305358
-0.0297708
-0.0286089
-0.0272743
-0.0260502
-0.025192
-0.0248481
-0.0250948
-0.025778
-0.0267455
-0.0276955
-0.0284072
-0.0287628
-0.0287137
-0.0284068
-0.0280607
-0.0277804
-0.0275695
-0.027277
-0.0265987
-0.0249967
-0.0218846
-0.0169283
-0.0100109
-0.00130149
0.00844698
0.0182764
0.0271873
0.034435
0.0397022
0.0433534
0.046226
0.0492316
0.0532623
0.0585899
0.0648728
0.0711327
0.0761905
0.0789931
0.0790036
0.0764195
0.0719798
0.0667624
0.0617492
0.0576315
0.0549771
0.054094
0.0550944
0.057998
0.0623768
0.067068
0.0704602
0.0707967
0.0667595
0.0578824
0.0448296
0.0290878
0.0125132
-0.00313739
-0.0168912
-0.0283774
-0.0376606
-0.0450438
-0.0507738
-0.0549836
-0.0578377
-0.0595194
-0.0602574
-0.0603127
-0.0598573
-0.0589718
-0.0577635
-0.0563416
-0.05487
-0.0536323
-0.0529753
-0.0530551
-0.0538555
-0.0550322
-0.056339
-0.0575251
-0.058576
-0.0598732
-0.0624707
-0.0679571
-0.0782433
-0.0950227
-0.119368
-0.150874
-0.18684
-0.22188
-0.247823
-0.25415
-0.228846
-0.160527
-0.0418321
0.126742
0.333286
0.553256
0.752013
0.891839
0.942052
0.888694
0.740294
0.526231
0.289029
0.0718299
-0.0934399
-0.193122
-0.232041
-0.227836
-0.202298
-0.173907
-0.153358
-0.143407
-0.141731
-0.14424
-0.147457
-0.14939
-0.149595
-0.148327
-0.146047
-0.143085
-0.139664
-0.135943
-0.132063
-0.128171
-0.124454
-0.121043
-0.118144
-0.115836
-0.114192
-0.113118
-0.112325
-0.11164
-0.110894
-0.110075
-0.109334
-0.108785
-0.108522
-0.108486
-0.108447
-0.108047
-0.107005
-0.1052
-0.102561
-0.0993066
-0.0956725
-0.0919769
-0.0884135
-0.0851541
-0.0823521
-0.0801448
-0.0786299
-0.077853
-0.0777953
-0.0782234
-0.0787273
-0.0787978
-0.0780962
-0.0764225
-0.073869
-0.0707972
-0.0676518
-0.0648676
-0.0627287
-0.0612997
-0.0605078
-0.0602535
-0.0603739
-0.0606702
-0.0609681
-0.0610525
-0.0608238
-0.060185
-0.0594172
-0.0588725
-0.0589895
-0.0600251
-0.0619828
-0.0644986
-0.0670066
-0.0689419
-0.0698855
-0.0697991
-0.068956
-0.0678497
-0.0670349
-0.0669064
-0.0674739
-0.0685454
-0.0695328
-0.0698462
-0.0688574
-0.0661073
-0.0613823
-0.0548005
-0.0467757
-0.0379975
-0.0292454
-0.0213632
-0.0148726
-0.00992297
-0.00633525
-0.00357128
-0.000966011
0.00196127
0.00563948
0.0102578
0.0158601
0.0223728
0.0296499
0.0374672
0.0455611
0.0535776
0.0611474
0.068061
0.0740882
0.0790883
0.0829547
0.0856339
0.0871091
0.0874919
0.0869325
0.0856779
0.0839427
0.0818493
0.0794329
0.0767173
0.073791
0.0708199
0.0680873
0.0658467
0.0641794
0.0630059
0.061977
0.0608133
0.0593396
0.0577334
0.0562221
0.0552198
0.0548502
0.0549553
0.0550614
0.0546114
0.0531857
0.0506703
0.0473928
0.0439201
0.0409672
0.0391955
0.038807
0.0396546
0.0411772
0.0424256
0.0425582
0.0409011
0.0372345
0.0319303
0.0257959
0.0197885
0.0147743
0.0111652
0.00895221
0.00771686
0.00696263
0.00624034
0.00542452
0.00462592
0.00409472
0.00406158
0.00450235
0.00515117
0.00555745
0.0052249
0.00388829
0.00138792
-0.002059
-0.00613014
-0.0103473
-0.0142132
-0.0174417
-0.0199154
-0.0217401
-0.0232254
-0.0246839
-0.0264772
-0.0287765
-0.0314872
-0.0342631
-0.0366562
-0.0381926
-0.0384987
-0.0375194
-0.0354227
-0.0326893
-0.0298705
-0.0274637
-0.0258307
-0.0252182
-0.0256179
-0.0269307
-0.0289255
-0.0312205
-0.0333424
-0.0347601
-0.0350933
-0.034237
-0.0325361
-0.0306338
-0.0293298
-0.0293449
-0.0309575
-0.0338857
-0.037438
-0.0406227
-0.0424072
-0.0418854
-0.0385478
-0.032253
-0.0232757
-0.012288
-0.00027167
0.0115183
0.0218771
0.0299621
0.035487
0.0387603
0.0406249
0.0421017
0.0440428
0.046834
0.0504049
0.0543014
0.0579697
0.0608946
0.0628085
0.0636258
0.0634065
0.0622487
0.0602955
0.0577038
0.0545654
0.0509909
0.0471964
0.0435411
0.0405632
0.0389579
0.0391811
0.0412492
0.0444636
0.0474754
0.0485293
0.0461109
0.0393463
0.0283166
0.0140973
-0.00160132
-0.0170931
-0.0310496
-0.0427408
-0.0519661
-0.0588949
-0.0638136
-0.0669021
-0.0683812
-0.0684486
-0.0674852
-0.0659879
-0.0645327
-0.0636681
-0.0636118
-0.0643522
-0.0656585
-0.0672438
-0.0687883
-0.0701699
-0.071345
-0.0722511
-0.0726579
-0.0721373
-0.0702808
-0.066888
-0.0623333
-0.0576217
-0.0544401
-0.0548185
-0.0607736
-0.0737516
-0.0943278
-0.122049
-0.155284
-0.190904
-0.224065
-0.248149
-0.254825
-0.234555
-0.17787
-0.0776623
0.0677844
0.251825
0.457426
0.657925
0.820951
0.915659
0.921019
0.832552
0.665107
0.449448
0.224288
0.0257708
-0.121347
-0.208263
-0.241178
-0.236058
-0.211676
-0.183749
-0.161533
-0.148062
-0.142126
-0.140773
-0.141333
-0.1421
-0.142553
-0.142743
-0.142752
-0.142564
-0.142051
-0.141084
-0.139505
-0.137271
-0.134539
-0.131458
-0.128366
-0.125448
-0.122754
-0.120159
-0.117386
-0.114212
-0.110551
-0.106698
-0.103155
-0.100474
-0.0991185
-0.0992302
-0.100614
-0.102768
-0.105002
-0.10677
-0.107682
-0.107591
-0.106697
-0.105351
-0.103949
-0.102816
-0.102136
-0.101842
-0.1017
-0.101436
-0.100691
-0.0992022
-0.0969794
-0.0940944
-0.0908082
-0.0875404
-0.0847054
-0.0825273
-0.0811286
-0.0803907
-0.0800513
-0.0799145
-0.0797907
-0.0797089
-0.0797781
-0.0801494
-0.0808702
-0.0819491
-0.083117
-0.0840409
-0.0844628
-0.0841456
-0.0830605
-0.0813875
-0.0793897
-0.0774673
-0.0760727
-0.0757205
-0.0767558
-0.07942
-0.0836615
-0.0891674
-0.0953134
-0.101455
-0.106868
-0.110982
-0.113352
-0.113564
-0.111428
-0.106825
-0.100007
-0.0915607
-0.0824558
-0.0738259
-0.0666958
-0.0616518
-0.0586594
-0.0571407
-0.0560898
-0.054385
-0.0512614
-0.0462699
-0.0394656
-0.0312427
-0.0220951
-0.0124729
-0.00277352
0.00682069
0.0161577
0.0251338
0.0336936
0.0418233
0.0495771
0.0570523
0.0643725
0.071451
0.078129
0.0840176
0.0886896
0.0918799
0.0934908
0.0935794
0.0924548
0.0904366
0.0878125
0.0847429
0.0814446
0.0779742
0.0745048
0.071298
0.06859
0.0665728
0.0653725
0.0649236
0.0650886
0.0656616
0.0663648
0.0669689
0.0673847
0.0675348
0.0674537
0.0670829
0.066309
0.0649387
0.0627781
0.0597338
0.0560496
0.0522581
0.0489111
0.0465323
0.0453484
0.045119
0.0452667
0.0451629
0.0442884
0.0424357
0.0396908
0.0364746
0.0331867
0.0302865
0.0279196
0.0260227
0.0243123
0.0225024
0.0203211
0.0178036
0.0151728
0.0129577
0.011539
0.0111258
0.0116467
0.012799
0.0140513
0.0149945
0.0154257
0.0153387
0.0149222
0.0144346
0.0140052
0.0135699
0.0128362
0.01136
0.00889524
0.00531174
0.000901068
-0.003658
-0.00762525
-0.0103723
-0.0117103
-0.0119674
-0.0118304
-0.0120454
-0.0130433
-0.0148235
-0.0169045
-0.0186075
-0.0193945
-0.0190734
-0.0178202
-0.0161722
-0.0146559
-0.0136067
-0.0131016
-0.0130899
-0.0134549
-0.0141344
-0.0151105
-0.0162855
-0.0175197
-0.0184761
-0.0187557
-0.01805
-0.0162389
-0.0135683
-0.0105604
-0.00792352
-0.00624846
-0.00578811
-0.00629002
-0.00706349
-0.00715415
-0.00567327
-0.00203382
0.0038471
0.011447
0.0199596
0.0285026
0.0363999
0.0432458
0.0490681
0.0541165
0.0587803
0.0633841
0.068062
0.0726253
0.076568
0.0793652
0.0805052
0.0798334
0.077629
0.0743907
0.0707173
0.0670562
0.0635326
0.0601182
0.0568117
0.0539103
0.0520594
0.0519371
0.0537103
0.0568543
0.0598983
0.0609506
0.0581584
0.0505816
0.0384772
0.0233465
0.00739177
-0.00718648
-0.0188203
-0.0268354
-0.0314289
-0.0334818
-0.0340734
-0.0342895
-0.0350212
-0.0366703
-0.0393021
-0.0426416
-0.0461215
-0.0492033
-0.0514355
-0.0525633
-0.0526781
-0.0520654
-0.0510209
-0.0497299
-0.0482766
-0.0468958
-0.0459011
-0.0459536
-0.048042
-0.0530542
-0.0614087
-0.0725952
-0.0851115
-0.0970068
-0.106713
-0.113891
-0.119929
-0.127381
-0.138938
-0.156086
-0.177721
-0.199819
-0.215808
-0.217514
-0.19601
-0.142688
-0.0505413
0.0838081
0.257402
0.458116
0.663623
0.843326
0.9642
0.999486
0.937441
0.786185
0.57299
0.337091
0.118796
-0.0511151
-0.158172
-0.204919
-0.206352
-0.18265
-0.151985
-0.126256
-0.110309
-0.10364
-0.103224
-0.105595
-0.108345
-0.110311
-0.11118
-0.111097
-0.110213
-0.108619
-0.106411
-0.103699
-0.100537
-0.0970847
-0.0935905
-0.0902661
-0.0873133
-0.0847928
-0.0826106
-0.0806929
-0.0788437
-0.0768672
-0.074806
-0.0726917
-0.0707943
-0.0693855
-0.0686626
-0.0687669
-0.0695895
-0.070885
-0.0722215
-0.0731589
-0.0732918
-0.0723535
-0.0704035
-0.0676699
-0.0645759
-0.0614894
-0.0587625
-0.05657
-0.0549461
-0.0537819
-0.0529331
-0.0522232
-0.0516334
-0.0511004
-0.0505521
-0.0499591
-0.0491374
-0.0480051
-0.0464438
-0.0444088
-0.0420843
-0.0397206
-0.0376671
-0.036251
-0.0356584
-0.035922
-0.0369807
-0.0386844
-0.0408893
-0.0435107
-0.0464159
-0.049576
-0.0528689
-0.0562824
-0.0597714
-0.0633424
-0.0669205
-0.0705167
-0.074077
-0.0775502
-0.0809953
-0.0845105
-0.0881634
-0.0919081
-0.0955628
-0.0987254
-0.100758
-0.101037
-0.0989698
-0.0942455
-0.0869303
-0.0774457
-0.0665352
-0.0551149
-0.0439879
-0.0337444
-0.0245287
-0.0160204
-0.00771176
0.000986927
0.010429
0.0206751
0.0313651
0.0419855
0.0520316
0.0611846
0.0693734
0.0766948
0.0832652
0.0891446
0.0942578
0.0984505
0.101655
0.103954
0.105495
0.106532
0.107275
0.107818
0.108146
0.108129
0.107657
0.106754
0.105363
0.103613
0.101595
0.0994198
0.0972078
0.0950403
0.0930168
0.091307
0.0900558
0.089316
0.0890755
0.0891639
0.0892595
0.0889809
0.0881219
0.0866128
0.0845768
0.0822667
0.0799341
0.0777064
0.0755459
0.0732292
0.0705457
0.0674264
0.0639878
0.0604886
0.0573025
0.0547057
0.052869
0.051817
0.0513495
0.05121
0.0511287
0.0507732
0.049802
0.0480508
0.0454931
0.0423454
0.0390796
0.0362495
0.0342154
0.033152
0.0328488
0.032896
0.0328687
0.0324807
0.0316439
0.0304758
0.0290826
0.0275373
0.0257881
0.0236762
0.021108
0.0181893
0.0151202
0.0121785
0.00975652
0.00799447
0.00686105
0.00604852
0.00519245
0.00387697
0.00195383
-0.000450833
-0.0029632
-0.00501083
-0.00606895
-0.00588501
-0.00456905
-0.00258803
-0.000606503
0.000703739
0.000824859
-0.000342358
-0.00248825
-0.00506426
-0.007504
-0.00938993
-0.0104897
-0.0109851
-0.0110472
-0.0108693
-0.0106064
-0.0101806
-0.00951054
-0.0085541
-0.00730334
-0.00579378
-0.00413845
-0.00231289
-2.11381e-6
0.00316595
0.00776401
0.0141193
0.0222994
0.0318995
0.0420236
0.0515803
0.0596751
0.0658538
0.0702976
0.0737621
0.0772294
0.0814415
0.0865183
0.0919941
0.0968829
0.100185
0.101185
0.0997521
0.0961991
0.0913083
0.0858143
0.0803396
0.0754433
0.0716283
0.0694002
0.0693203
0.0714259
0.0752695
0.0795469
0.0824322
0.0821462
0.0773956
0.0677807
0.053985
0.0374959
0.0201571
0.00372688
-0.0104807
-0.0217727
-0.0299128
-0.035199
-0.03828
-0.0398565
-0.0408139
-0.0417521
-0.0430515
-0.0447318
-0.0465843
-0.0482567
-0.0494308
-0.0499376
-0.0498199
-0.0491439
-0.0480582
-0.0466388
-0.0450725
-0.0437019
-0.0430762
-0.0440579
-0.0478367
-0.0556934
-0.0687951
-0.088097
-0.113953
-0.145553
-0.180802
-0.216129
-0.24684
-0.267736
-0.27378
-0.260771
-0.225456
-0.164957
-0.0761711
0.043941
0.197111
0.381179
0.587062
0.796734
0.98356
1.11628
1.16669
1.11816
0.972283
0.750758
0.490863
0.235632
0.0224622
-0.125929
-0.205324
-0.227623
-0.213903
-0.186158
-0.160497
-0.144905
-0.140079
-0.142664
-0.14836
-0.154006
-0.158102
-0.160469
-0.161439
-0.161269
-0.160074
-0.157992
-0.155304
-0.152197
-0.149001
-0.145861
-0.142656
-0.139238
-0.135522
-0.131548
-0.127586
-0.1241
-0.121418
-0.119778
-0.119167
-0.119126
-0.119257
-0.119004
-0.118065
-0.116371
-0.11401
-0.111242
-0.10839
-0.105636
-0.103057
-0.100722
-0.0985369
-0.0964394
-0.0944258
-0.0925691
-0.091006
-0.0897672
-0.0889605
-0.0884485
-0.088088
-0.087558
-0.0866551
-0.0852247
-0.0833412
-0.0812188
-0.0791578
-0.0774335
-0.07615
-0.0753365
-0.0748055
-0.0743979
-0.0740392
-0.0736778
-0.073386
-0.0733095
-0.0734739
-0.0739065
-0.0745729
-0.0753652
-0.0761722
-0.0770095
-0.0778196
-0.07871
-0.0797753
-0.0811424
-0.0828703
-0.0850931
-0.0877285
-0.0907049
-0.0938045
-0.0966709
-0.0989015
-0.100036
-0.099717
-0.0975318
-0.093289
-0.0868643
-0.0782714
-0.067793
-0.0558038
-0.0428164
-0.0294994
-0.0163992
-0.00400798
0.00724277
0.0171077
0.02548
0.0324295
0.0382015
0.0432764
0.0481879
0.0535232
0.0597415
0.0669765
0.0749855
0.0832304
0.0908667
0.0971113
0.101362
0.103428
0.103473
0.102099
0.0999179
0.0975142
0.0952759
0.0932609
0.0913534
0.0893211
0.0869759
0.0842684
0.0813274
0.0784113
0.0757728
0.0737038
0.0723496
0.0716385
0.0713966
0.071288
0.0710468
0.070415
0.0693498
0.06786
0.0660554
0.0640731
0.0620225
0.0600538
0.0581951
0.0564394
0.0547593
0.0530143
0.0510764
0.0488169
0.0460887
0.0428919
0.0393261
0.0356119
0.0319875
0.0286987
0.0259884
0.0238791
0.0223498
0.0212619
0.020395
0.0195251
0.0184374
0.0170188
0.0153748
0.0135645
0.0118968
0.0107032
0.0101388
0.0102756
0.0110252
0.0120559
0.0129523
0.0133181
0.0127577
0.0111173
0.00845819
0.00506624
0.00143626
-0.00187687
-0.00432175
-0.00566174
-0.00598052
-0.00559689
-0.00500183
-0.00458198
-0.00463373
-0.00511857
-0.00582017
-0.00639945
-0.00661061
-0.00614857
-0.00502722
-0.00334814
-0.001323
0.000669625
0.00227314
0.00310396
0.00287476
0.00148188
-0.000870701
-0.00374315
-0.00642173
-0.00809438
-0.00798978
-0.00551928
-0.000524415
0.00667931
0.015465
0.0248993
0.0340268
0.0420329
0.0484166
0.0530091
0.055883
0.0574307
0.0581571
0.0587108
0.0598335
0.0621428
0.0660368
0.0715825
0.0783081
0.0852516
0.0912257
0.0951215
0.0963037
0.0946885
0.0907683
0.0854885
0.0799024
0.0750114
0.07157
0.070177
0.0710555
0.0741086
0.0786322
0.0833676
0.0866543
0.0867809
0.0824755
0.0731983
0.0594421
0.0425575
0.024435
0.00693543
-0.00839099
-0.0205547
-0.0293444
-0.0350209
-0.0381808
-0.0396333
-0.040338
-0.0410705
-0.042265
-0.0440981
-0.0462913
-0.0484571
-0.0501237
-0.0509022
-0.0505809
-0.0493014
-0.0471606
-0.0445431
-0.041792
-0.0396022
-0.0390397
-0.0416826
-0.0494191
-0.0640576
-0.0868339
-0.117677
-0.154708
-0.193628
-0.227546
-0.247409
-0.242646
-0.202195
-0.116755
0.0181927
0.198758
0.410205
0.626314
0.812761
0.934272
0.963986
0.892038
0.730106
0.509014
0.270822
0.0567735
-0.103458
-0.198047
-0.232714
-0.22525
-0.197282
-0.167106
-0.145489
-0.135267
-0.134096
-0.137571
-0.141702
-0.144048
-0.143967
-0.14188
-0.138712
-0.135347
-0.132357
-0.130138
-0.128677
-0.127716
-0.126902
-0.126006
-0.124981
-0.123882
-0.122868
-0.121983
-0.121056
-0.119823
-0.118063
-0.115602
-0.112628
-0.109373
-0.106081
-0.10295
-0.100064
-0.0974758
-0.0952402
-0.0934834
-0.0923348
-0.0918902
-0.0919585
-0.0921109
-0.0920156
-0.0911861
-0.0894418
-0.0869925
-0.0842255
-0.0816113
-0.0794842
-0.077999
-0.0770416
-0.0763001
-0.0754499
-0.0742366
-0.0725078
-0.0703439
-0.0677711
-0.0649699
-0.0622309
-0.0598332
-0.058127
-0.0573426
-0.0576099
-0.0588552
-0.0607978
-0.062925
-0.0648209
-0.0661155
-0.0665646
-0.0662652
-0.0655582
-0.0647124
-0.0641336
-0.0639569
-0.0641809
-0.0646596
-0.0651124
-0.0653538
-0.0654583
-0.065644
-0.0663236
-0.0677809
-0.0701071
-0.072975
-0.0756364
-0.0770976
-0.0764374
-0.0731266
-0.0671983
-0.0592187
-0.0502225
-0.0412941
-0.0333594
-0.0269919
-0.0223171
-0.0191596
-0.0171311
-0.0157116
-0.014335
-0.0124392
-0.00953728
-0.00519301
0.000814107
0.0084654
0.0175107
0.0274117
0.0374972
0.0469535
0.0550312
0.0611289
0.0649944
0.0666281
0.0664322
0.06505
0.0631869
0.0614083
0.0600671
0.0590941
0.058273
0.0572759
0.0558588
0.0540563
0.0521306
0.0503927
0.0491899
0.0487571
0.0491139
0.0501679
0.0517601
0.0535138
0.0550441
0.0559256
0.0557104
0.0541394
0.0511544
0.0469871
0.0420801
0.0370036
0.0321981
0.0280374
0.0246541
0.0219278
0.019651
0.0175373
0.0152866
0.0127697
0.00992534
0.00680983
0.00367266
0.000734705
-0.00172867
-0.00348524
-0.00436962
-0.00442296
-0.00391628
-0.00313164
-0.00242411
-0.00199971
-0.00189321
-0.0020398
-0.00230893
-0.00262498
-0.00311241
-0.00402466
-0.00561458
-0.00816537
-0.0117687
-0.0162282
-0.0211849
-0.0260266
-0.0301109
-0.0329145
-0.0341352
-0.0338157
-0.0323623
-0.0304261
-0.0286193
-0.0274518
-0.0270681
-0.0272898
-0.0276809
-0.0278018
-0.027338
-0.0262876
-0.0249536
-0.0238574
-0.0235752
-0.0244355
-0.0264783
-0.0293921
-0.0325718
-0.0353243
-0.0370852
-0.0375604
-0.0367367
-0.0350094
-0.0329717
-0.0312709
-0.0302785
-0.0300092
-0.0299995
-0.0292956
-0.0267986
-0.0216443
-0.0135332
-0.00295341
0.00881337
0.0200972
0.0293657
0.0356237
0.0387971
0.0397483
0.0398665
0.0405443
0.0427943
0.0469291
0.052549
0.0586594
0.0641187
0.0678947
0.0693517
0.0683484
0.0652147
0.0606039
0.0553208
0.05012
0.0456406
0.0423359
0.04048
0.0402875
0.041631
0.044066
0.0466664
0.0481566
0.0470479
0.042214
0.0330453
0.0197418
0.00336252
-0.0145112
-0.032018
-0.0474803
-0.059656
-0.0679508
-0.0724154
-0.0736007
-0.0724982
-0.0702375
-0.0678275
-0.0659886
-0.0651512
-0.0653633
-0.0665291
-0.0683815
-0.0706296
-0.0729482
-0.0749777
-0.076419
-0.0769998
-0.0765767
-0.0752165
-0.0732091
-0.0711912
-0.0702681
-0.072016
-0.0781748
-0.0904212
-0.109868
-0.13647
-0.168338
-0.201108
-0.228028
-0.240017
-0.226336
-0.176105
-0.080858
0.0621194
0.246334
0.453916
0.656356
0.819181
0.909929
0.907473
0.809154
0.632924
0.412827
0.189811
0.000179549
-0.133303
-0.205207
-0.225219
-0.211821
-0.184643
-0.15869
-0.14178
-0.135085
-0.136059
-0.140867
-0.146336
-0.150716
-0.153456
-0.154604
-0.154335
-0.152789
-0.150038
-0.146255
-0.141763
-0.136971
-0.13236
-0.128307
-0.125104
-0.12273
-0.120916
-0.119249
-0.117317
-0.11485
-0.111863
-0.108648
-0.105744
-0.103674
-0.102785
-0.103165
-0.104482
-0.106159
-0.10744
-0.107673
-0.106529
-0.104049
-0.100653
-0.0970675
-0.0939414
-0.0916694
-0.090279
-0.0894741
-0.0886945
-0.0874496
-0.0854233
-0.0825544
-0.0790424
-0.0752886
-0.0717593
-0.06893
-0.0672659
-0.067035
-0.0683548
-0.0710637
-0.0747104
-0.0786218
-0.0821279
-0.084548
-0.0855318
-0.0849311
-0.0828883
-0.0798236
-0.0763439
-0.0729526
-0.0700893
-0.0681364
-0.0672664
-0.067484
-0.0686907
-0.0706401
-0.073142
-0.0759292
-0.0788345
-0.0817386
-0.084633
-0.0875983
-0.0907516
-0.0941727
-0.097795
-0.101407
-0.104452
-0.106349
-0.106367
-0.104038
-0.0992065
-0.0922236
-0.0838853
-0.075299
-0.067491
-0.0612045
-0.0567486
-0.0537357
-0.0513908
-0.0486694
-0.0447189
-0.0389368
-0.0312214
-0.0218486
-0.011362
-0.000316674
0.010813
0.0215588
0.0316363
0.0407223
0.0485817
0.0551505
0.0604273
0.0647135
0.068355
0.0717204
0.0749921
0.0782404
0.0812984
0.0840113
0.0862299
0.0879667
0.0894328
0.0907943
0.0921213
0.093189
0.0936813
0.0931119
0.0912709
0.0883769
0.0849827
0.0818732
0.0796496
0.0786298
0.0785972
0.0789936
0.0791564
0.0785499
0.0770185
0.0746597
0.0717075
0.0685094
0.065316
0.0623234
0.0596263
0.0572064
0.0550096
0.0528635
0.0505647
0.0480129
0.0453074
0.042674
0.0403501
0.0386042
0.0374698
0.0366795
0.0359052
0.0347662
0.0330979
0.0309993
0.0287763
0.0268328
0.0254105
0.02464
0.024349
0.0242697
0.0241777
0.0237513
0.0229383
0.0216582
0.0199657
0.017966
0.0158645
0.0138632
0.0121402
0.0107626
0.00960817
0.00855831
0.00749389
0.00630981
0.00513759
0.00412231
0.00345117
0.00321264
0.00336044
0.00372186
0.00411099
0.00431636
0.00422264
0.00379426
0.00301543
0.00191781
0.000499613
-0.00116583
-0.00313849
-0.00539721
-0.00790292
-0.0104172
-0.0126073
-0.0138719
-0.013539
-0.0109877
-0.0058697
0.00159382
0.010796
0.0206936
0.030162
0.0384045
0.0449528
0.0498692
0.0535919
0.056706
0.0598132
0.0633315
0.0674724
0.072107
0.0769388
0.0814467
0.0850429
0.0871928
0.087528
0.0859719
0.0828444
0.0786879
0.0743499
0.0707551
0.0687533
0.0687485
0.0705236
0.0730456
0.074638
0.0734871
0.0681458
0.0580562
0.04386
0.027144
0.0100057
-0.00544971
-0.0178979
-0.0268511
-0.0326315
-0.0360268
-0.0378862
-0.0388331
-0.0392001
-0.039066
-0.0383742
-0.0370349
-0.0352056
-0.0330801
-0.0310533
-0.0294953
-0.0287448
-0.0289439
-0.0300747
-0.0317627
-0.0335141
-0.0348631
-0.0354527
-0.0353261
-0.0350394
-0.0357518
-0.0391818
-0.0473563
-0.0621299
-0.0848897
-0.115546
-0.151638
-0.187743
-0.21517
-0.222235
-0.195642
-0.123195
0.00237586
0.1793
0.393504
0.618122
0.816926
0.952158
0.99447
0.932157
0.775712
0.55585
0.315109
0.0958039
-0.0711205
-0.172592
-0.213411
-0.210595
-0.185357
-0.155902
-0.133035
-0.120156
-0.115657
-0.11592
-0.117658
-0.118938
-0.11924
-0.118769
-0.117923
-0.116885
-0.11582
-0.114696
-0.113394
-0.111885
-0.110104
-0.108086
-0.105945
-0.10383
-0.101852
-0.10009
-0.098477
-0.0969881
-0.0955827
-0.0943384
-0.0933011
-0.0925197
-0.0920556
-0.0918357
-0.0917414
-0.0915678
-0.0910761
-0.0900685
-0.0884048
-0.0860352
-0.0830795
-0.0798599
-0.0766555
-0.0737955
-0.071483
-0.0697138
-0.0683872
-0.0673002
-0.0662013
-0.065001
-0.0637219
-0.0623503
-0.0611212
-0.0601706
-0.059651
-0.0595782
-0.059959
-0.0605853
-0.0612006
-0.0615761
-0.0614634
-0.0608495
-0.05984
-0.0586165
-0.05745
-0.0564394
-0.0555996
-0.054859
-0.0541362
-0.0534982
-0.0531562
-0.0535391
-0.0549342
-0.0575153
-0.0611798
-0.0655215
-0.0700208
-0.0743381
-0.0781918
-0.0816914
-0.0850733
-0.0886305
-0.0923969
-0.0962189
-0.0995133
-0.101503
-0.101471
-0.0987866
-0.0933118
-0.0852028
-0.0749698
-0.0633812
-0.0512596
-0.0393748
-0.0282107
-0.0179237
-0.00845601
0.000597423
0.00953366
0.0186875
0.0281217
0.0377114
0.0472566
0.0565272
0.0652467
0.0732744
0.0804378
0.0866553
0.0918179
0.0960097
0.0994405
0.102257
0.104631
0.10648
0.107736
0.108133
0.107576
0.106042
0.103693
0.100865
0.0978461
0.0949713
0.0925599
0.0908423
0.0899419
0.0898215
0.0903107
0.0910007
0.0913116
0.0907965
0.0893804
0.0873061
0.0853383
0.0845222
0.0858777
0.090165
0.0975149
0.107601
0.119549
0.132255
0.144561
0.15551
0.164365
0.17075
0.174589
0.176108
0.175797
0.174175
0.171598
0.168136
0.16378
0.158323
0.151615
0.143855
0.135481
0.127208
0.119597
0.113018
0.107253
0.101572
0.0951041
0.0868372
0.0762572
0.063325
0.0486045
0.0332116
0.0184244
0.00533447
-0.00539816
-0.0137488
-0.0202401
-0.0256525
-0.0307888
-0.0361796
-0.0418654
-0.0474825
-0.0525474
-0.0565592
-0.0592995
-0.0609287
-0.0617638
-0.0622617
-0.0628002
-0.0636649
-0.0649184
-0.0664621
-0.0681744
-0.0697667
-0.0710934
-0.0718977
-0.0719862
-0.0713219
-0.0700368
-0.0684811
-0.0674755
-0.0685096
-0.0736301
-0.0851156
-0.1049
-0.133876
-0.170826
-0.211546
-0.248677
-0.272119
-0.269887
-0.229707
-0.14143
-8.57739e-5
0.190756
0.416273
0.649746
0.855491
0.995869
1.04098
0.978086
0.816946
0.588422
0.336249
0.10483
-0.0729104
-0.182606
-0.228787
-0.229075
-0.205678
-0.177495
-0.155673
-0.143541
-0.139319
-0.139468
-0.141
-0.142371
-0.14343
-0.14451
-0.145935
-0.147748
-0.149672
-0.151336
-0.152308
-0.152364
-0.151319
-0.149109
-0.145968
-0.142242
-0.13826
-0.134417
-0.130921
-0.127977
-0.125578
-0.123631
-0.121896
-0.119994
-0.117593
-0.114419
-0.110512
-0.106127
-0.101627
-0.097499
-0.0939565
-0.0910568
-0.0886826
-0.0866394
-0.0848206
-0.0832671
-0.0821704
-0.0815813
-0.0815779
-0.0820739
-0.0828701
-0.083776
-0.084698
-0.0855736
-0.0863231
-0.0868508
-0.0870415
-0.0868169
-0.086107
-0.0850237
-0.0836861
-0.0823266
-0.0810056
-0.0797435
-0.078455
-0.0770236
-0.0753582
-0.0735552
-0.0718469
-0.0705552
-0.0700149
-0.0703428
-0.0714527
-0.0731835
-0.0752137
-0.0773148
-0.0794325
-0.0815705
-0.0838989
-0.0865184
-0.0894797
-0.0927064
-0.095974
-0.0989353
-0.101323
-0.102764
-0.102867
-0.101159
-0.0971781
-0.0904499
-0.0808111
-0.0684207
-0.0539552
-0.0385011
-0.0233235
-0.00948583
0.00242183
0.012332
0.0206482
0.0280043
0.0348604
0.0414396
0.0477473
0.0535459
0.0586604
0.0630336
0.0666793
0.0697883
0.0724931
0.0748443
0.0768978
0.078569
0.079843
0.0806724
0.0811048
0.0811713
0.0809759
0.0805976
0.0800518
0.0793411
0.0784133
0.0771567
0.0754784
0.0734368
0.0711131
0.0687117
0.0665089
0.0647125
0.0633738
0.0623395
0.0612988
0.0598921
0.0578289
0.0551216
0.0520151
0.0489053
0.0462176
0.0442553
0.0429602
0.0420982
0.0412238
0.0399688
0.0381465
0.0358281
0.0332904
0.0308704
0.0287976
0.027176
0.0259495
0.0249648
0.0240738
0.0231303
0.0220647
0.0208851
0.019517
0.017934
0.0161103
0.0139832
0.0116503
0.0091494
0.00653877
0.00399712
0.00162149
-0.000476288
-0.00218258
-0.00345856
-0.00425902
-0.00456084
-0.00447303
-0.00405453
-0.00344892
-0.00279681
-0.00223313
-0.00179364
-0.0013921
-0.000969833
-0.000434335
0.000188831
0.000860447
0.00143872
0.00171996
0.00156837
0.000964423
2.54787e-5
-0.00101833
-0.00189092
-0.00226375
-0.002152
-0.00172943
-0.00139436
-0.00166054
-0.00285913
-0.00506251
-0.00804386
-0.0112411
-0.0140595
-0.0160499
-0.0171291
-0.0173083
-0.0168609
-0.0160838
-0.0151769
-0.0142306
-0.0131335
-0.011746
-0.0100045
-0.00785767
-0.00546547
-0.00309975
-0.00116245
0.000129595
0.000665352
0.000579419
0.000208366
-1.23877e-5
0.00018587
0.000928813
0.00202578
0.00311713
0.00382872
0.00394379
0.00345113
0.00250571
0.00154762
0.000894921
0.000785934
0.0012639
0.0021984
0.00338045
0.00454946
0.00553813
0.00628671
0.00678155
0.00710866
0.00730085
0.00741586
0.00740392
0.00728372
0.00707384
0.00689243
0.00692946
0.00745857
0.00863836
0.010531
0.0130026
0.0157626
0.0183559
0.0203314
0.0213564
0.0212854
0.0202396
0.0185835
0.0169103
0.0157068
0.0153164
0.0157626
0.0167227
0.0176848
0.0180975
0.0175839
0.0161292
0.0140712
0.012131
0.0111919
0.012061
0.0152558
0.0207641
0.0280538
0.036175
0.0440786
0.0509852
0.056634
0.0614009
0.0659469
0.0711
0.0772513
0.0842766
0.0915066
0.0979107
0.102597
0.104928
0.104768
0.10236
0.0981171
0.0925133
0.0860145
0.0790857
0.0724604
0.0670597
0.0637656
0.0630839
0.0646797
0.0672979
0.0689985
0.0677035
0.0618834
0.0510938
0.0360929
0.0186175
0.00090953
-0.0149922
-0.027628
-0.0363632
-0.0412295
-0.0428639
-0.0422153
-0.0403119
-0.038109
-0.0362774
-0.0352057
-0.0349031
-0.0352849
-0.036182
-0.0374379
-0.0390669
-0.0411386
-0.0437863
-0.0469714
-0.0503611
-0.0534864
-0.0557758
-0.0567633
-0.0563797
-0.0551671
-0.0544574
-0.0561927
-0.0626121
-0.0756136
-0.0963064
-0.124354
-0.157397
-0.190625
-0.216816
-0.226611
-0.209253
-0.153998
-0.0528899
0.0960395
0.285285
0.495998
0.698812
0.858769
0.943514
0.932642
0.824612
0.638762
0.410605
0.181981
-0.0105436
-0.144646
-0.21586
-0.234856
-0.220735
-0.193237
-0.166855
-0.148609
-0.139158
-0.135812
-0.135291
-0.135196
-0.134447
-0.132996
-0.130978
-0.12852
-0.125544
-0.122102
-0.118302
-0.114571
-0.111384
-0.109267
-0.108525
-0.109249
-0.111322
-0.11442
-0.118057
-0.121777
-0.124937
-0.127019
-0.127587
-0.126449
-0.123688
-0.11973
-0.115201
-0.110725
-0.10673
-0.103426
-0.100799
-0.0986706
-0.097034
-0.0958771
-0.0952421
-0.0951189
-0.0953585
-0.0956421
-0.0956875
-0.095349
-0.0946173
-0.0936738
-0.0927889
-0.0921836
-0.0920234
-0.0923258
-0.0929973
-0.0939069
-0.0949097
-0.0958611
-0.0966537
-0.0970317
-0.0967571
-0.095649
-0.0935517
-0.0904382
-0.0865803
-0.0824239
-0.0784248
-0.0750109
-0.0724475
-0.0706151
-0.0692504
-0.0680592
-0.0669671
-0.0660472
-0.0656312
-0.0660924
-0.0675575
-0.0698868
-0.0727363
-0.0756783
-0.0784202
-0.080897
-0.0832261
-0.0855246
-0.087629
-0.0891923
-0.089576
-0.0881736
-0.0846365
-0.0791026
-0.0720655
-0.064283
-0.0565498
-0.0494239
-0.0430915
-0.0375312
-0.0326852
-0.0285262
-0.025188
-0.0228302
-0.0215052
-0.0209692
-0.020599
-0.0197013
-0.0176723
-0.0141499
-0.0092749
-0.00351603
0.00257862
0.00855203
0.0141288
0.0193018
0.0241609
0.0289556
0.0337673
0.0385996
0.0433532
0.0478399
0.0519418
0.0555655
0.0587396
0.0615024
0.063948
0.0660505
0.0677526
0.0689778
0.0697365
0.0702225
0.0706525
0.0712213
0.072079
0.0731374
0.0741682
0.0749192
0.075259
0.0751247
0.0746742
0.0739726
0.0729915
0.0714389
0.0689861
0.0653488
0.0605333
0.0549887
0.0494045
0.0446563
0.0413788
0.0398536
0.0398221
0.0406466
0.0415126
0.0416596
0.0405671
0.0380913
0.0343843
0.0299345
0.025381
0.0213663
0.0184566
0.0169753
0.0168095
0.0175611
0.0184656
0.0186759
0.0175363
0.0147242
0.0104343
0.00536987
0.000563422
-0.00296754
-0.0045458
-0.00419333
-0.00248714
-0.0005667
0.000292628
-0.000888511
-0.00440513
-0.00978208
-0.0158549
-0.0211932
-0.0245469
-0.0252412
-0.0234985
-0.0201341
-0.0164335
-0.0136567
-0.0126163
-0.0135732
-0.0162193
-0.0198858
-0.0238191
-0.0273057
-0.0298816
-0.031239
-0.0313311
-0.0304102
-0.0288656
-0.0271467
-0.0257193
-0.0249567
-0.0250511
-0.0259684
-0.0276377
-0.0298403
-0.0323518
-0.0349936
-0.0375484
-0.0398004
-0.0414379
-0.0423649
-0.0425102
-0.0418377
-0.0403482
-0.0379251
-0.0343341
-0.0293046
-0.022627
-0.0144186
-0.00511227
0.00450868
0.0135031
0.0211352
0.0269956
0.0311816
0.0341773
0.0367509
0.0396297
0.0431853
0.0474058
0.0517374
0.0553214
0.0572825
0.0571382
0.0548387
0.05087
0.0460723
0.0412578
0.037109
0.0340886
0.0325377
0.0326899
0.0345996
0.0378523
0.0414669
0.0439854
0.0437805
0.0394831
0.0305534
0.0175081
0.00183458
-0.0145756
-0.029872
-0.0426508
-0.0521718
-0.0582416
-0.061181
-0.0615756
-0.0602038
-0.0579328
-0.0554241
-0.0532178
-0.051524
-0.0502583
-0.0492613
-0.048356
-0.0475237
-0.0469591
-0.0470801
-0.0482715
-0.0508126
-0.0545622
-0.0591779
-0.0639131
-0.0678853
-0.0702792
-0.0707089
-0.0696039
-0.0684558
-0.0696629
-0.076093
-0.0904166
-0.114083
-0.146165
-0.182481
-0.215394
-0.234058
-0.225461
-0.176676
-0.0782296
0.0721342
0.265985
0.482396
0.689697
0.851229
0.934164
0.91908
0.806268
0.616951
0.387861
0.160926
-0.0279868
-0.157815
-0.225055
-0.240937
-0.224643
-0.195693
-0.168351
-0.149563
-0.140024
-0.13706
-0.137011
-0.137136
-0.136166
-0.134091
-0.131471
-0.128986
-0.12725
-0.126562
-0.126889
-0.127904
-0.129059
-0.129813
-0.129677
-0.128523
-0.126583
-0.124315
-0.122157
-0.120435
-0.119266
-0.118415
-0.117541
-0.116311
-0.114627
-0.112465
-0.109999
-0.107383
-0.104784
-0.102277
-0.0999115
-0.0977189
-0.095726
-0.0940077
-0.0925332
-0.0912149
-0.0900741
-0.0891058
-0.0884171
-0.088119
-0.0883174
-0.0890004
-0.0899805
-0.0909871
-0.0917846
-0.092087
-0.0916536
-0.090494
-0.0886147
-0.0862175
-0.0834672
-0.0805907
-0.0777587
-0.0750491
-0.0724211
-0.0697334
-0.0668583
-0.0637412
-0.0605038
-0.0573651
-0.0546307
-0.0527357
-0.0519818
-0.0525867
-0.0546114
-0.057848
-0.0620236
-0.0667385
-0.071704
-0.0766721
-0.0816308
-0.0866867
-0.0919918
-0.0975765
-0.103304
-0.108723
-0.11322
-0.116131
-0.11691
-0.115147
-0.110706
-0.103726
-0.0946081
-0.0840493
-0.0729793
-0.0624006
-0.0533096
-0.0462745
-0.0413798
-0.0381392
-0.0356449
-0.0328876
-0.0290303
-0.0235311
-0.0162985
-0.00754596
0.00238178
0.0129851
0.0237337
0.0341976
0.0439723
0.0527789
0.0604592
0.0669975
0.072604
0.0775158
0.0819706
0.0860854
0.0898667
0.0931925
0.0958968
0.0979118
0.0992043
0.0999743
0.100444
0.100893
0.101427
0.101978
0.1023
0.102037
0.10086
0.0986462
0.0954819
0.0917416
0.0879406
0.084543
0.0818374
0.0798701
0.0784535
0.0773534
0.0762946
0.0750766
0.0736697
0.0720879
0.0704459
0.0689406
0.0677044
0.0668431
0.0664304
0.0663051
0.0662555
0.0659528
0.065125
0.0636862
0.0616701
0.0591473
0.0562652
0.0531017
0.0497436
0.0462802
0.0429315
0.0399224
0.0375132
0.0358399
0.0349308
0.0346162
0.0345734
0.0345354
0.0341823
0.0334273
0.0322806
0.0308341
0.029339
0.028029
0.0270756
0.0265886
0.0265619
0.0267893
0.0271225
0.0273048
0.0272712
0.0271208
0.0270338
0.0273031
0.0280429
0.0291523
0.0302911
0.0309682
0.0306492
0.0290424
0.0261322
0.0222549
0.017996
0.0139735
0.0107875
0.00874035
0.00785947
0.00790767
0.00840226
0.00881425
0.00874096
0.0079106
0.00637646
0.00439315
0.0023624
0.000726476
-0.000196751
-0.000262753
0.000512749
0.00184291
0.00343163
0.00511346
0.00681342
0.00875822
0.011368
0.0150644
0.0201495
0.0266472
0.034143
0.0419895
0.0494055
0.055788
0.0609448
0.065056
0.0687715
0.0727707
0.0775638
0.0833144
0.089697
0.0959917
0.101358
0.105025
0.106613
0.106078
0.103771
0.100234
0.0960879
0.0918267
0.0878886
0.0846651
0.0826145
0.0822619
0.0839614
0.0875606
0.0923321
0.0968394
0.0993709
0.0984312
0.0931931
0.0836975
0.07083
0.0559885
0.0406542
0.0260355
0.0129141
0.00180854
-0.00705099
-0.0135288
-0.0178488
-0.0203736
-0.0217334
-0.022598
-0.0235038
-0.0247879
-0.0264401
-0.028247
-0.0298815
-0.031113
-0.0318537
-0.0321485
-0.0321438
-0.0318873
-0.0312654
-0.03016
-0.0286124
-0.0267157
-0.0249415
-0.0241029
-0.0253556
-0.0301587
-0.0400705
-0.0563837
-0.079623
-0.108903
-0.141418
-0.172439
-0.195479
-0.203444
-0.189956
-0.150312
-0.0820137
0.0155125
0.141139
0.29209
0.463112
0.644983
0.8231
0.977002
1.08255
1.11716
1.06661
0.930971
0.727061
0.48575
0.244414
0.0373456
-0.112771
-0.199225
-0.230174
-0.223361
-0.198636
-0.171962
-0.152381
-0.142344
-0.139962
-0.141804
-0.144803
-0.147251
-0.148594
-0.14889
-0.148424
-0.147368
-0.145956
-0.144485
-0.143111
-0.141934
-0.140905
-0.139833
-0.138523
-0.13689
-0.134877
-0.13258
-0.130244
-0.128097
-0.126335
-0.125089
-0.124436
-0.124223
-0.124296
-0.124325
-0.123994
-0.122959
-0.121058
-0.118352
-0.115046
-0.111638
-0.108556
-0.106187
-0.104853
-0.104415
-0.104569
-0.104925
-0.105047
-0.104716
-0.103927
-0.10274
-0.101398
-0.100014
-0.098528
-0.0968106
-0.0947731
-0.0923447
-0.0896406
-0.087029
-0.0848478
-0.0834422
-0.0829866
-0.0833794
-0.0844456
-0.0858378
-0.087291
-0.0885644
-0.0895559
-0.0902043
-0.090416
-0.090174
-0.0895463
-0.0886319
-0.0877358
-0.0872115
-0.0874031
-0.0887101
-0.0913436
-0.0953447
-0.100596
-0.106669
-0.112876
-0.118412
-0.122355
-0.123845
-0.122283
-0.117391
-0.109299
-0.0986047
-0.0861539
-0.0730394
-0.060464
-0.0494407
-0.0406219
-0.0342298
-0.0298414
-0.0265659
-0.0232563
-0.0189154
-0.0128145
-0.00485341
0.00457791
0.0148172
0.0250968
0.0349609
0.0442568
0.0531522
0.0618053
0.0703867
0.0786914
0.0864016
0.0931075
0.098516
0.102591
0.105471
0.10743
0.108732
0.109581
0.110041
0.110104
0.10985
0.109455
0.109159
0.109217
0.109708
0.110465
0.111221
0.111616
0.111337
0.110361
0.108675
0.106432
0.103716
0.100583
0.0970494
0.093241
0.0894041
0.0858314
0.0827764
0.0802998
0.0783236
0.0765988
0.0749361
0.0732428
0.0715127
0.0698853
0.0684522
0.0672628
0.0662817
0.0653453
0.0642988
0.0629295
0.0610422
0.0584144
0.0549281
0.0506384
0.0458081
0.04084
0.0362436
0.0324814
0.0297608
0.0280139
0.0269401
0.0261829
0.0254823
0.0247215
0.0239582
0.023317
0.0228023
0.0223932
0.022037
0.0216763
0.0213888
0.021283
0.0213667
0.0216132
0.0217314
0.0213649
0.0201461
0.0180061
0.0151573
0.0119605
0.00890821
0.00637091
0.00448415
0.00309081
0.00192674
0.000792074
-0.00037256
-0.00138978
-0.00208892
-0.00227919
-0.00208595
-0.00182379
-0.00186912
-0.00257304
-0.00398658
-0.00588632
-0.00781631
-0.00932107
-0.00999719
-0.00978876
-0.0088743
-0.00766896
-0.00658813
-0.00605382
-0.00621327
-0.00688962
-0.00765456
-0.00784428
-0.00675499
-0.00379232
0.00126024
0.00828919
0.0167403
0.025769
0.0345165
0.0422171
0.0485032
0.053454
0.0574201
0.0609538
0.0645822
0.0686382
0.0731746
0.0780559
0.0830279
0.0876255
0.0913684
0.0938255
0.0946323
0.0937179
0.0911746
0.0873074
0.0825718
0.0774515
0.0724088
0.0680244
0.0649913
0.0639784
0.0654065
0.0690094
0.0736966
0.0777044
0.0790097
0.0759578
0.0678464
0.0551942
0.0395823
0.0231072
0.00768107
-0.00531709
-0.0154231
-0.0227861
-0.0279031
-0.0313375
-0.0335291
-0.0348778
-0.0357151
-0.0363964
-0.037338
-0.0388708
-0.0411235
-0.0439839
-0.0470637
-0.0499623
-0.0522669
-0.0537899
-0.0544661
-0.0543357
-0.053563
-0.0523701
-0.0510659
-0.050209
-0.0508796
-0.0546205
-0.0632778
-0.0785729
-0.101568
-0.132054
-0.16785
-0.204124
-0.233503
-0.246492
-0.232284
-0.180112
-0.0816141
0.0661328
0.257597
0.476424
0.695399
0.880018
0.995496
1.01616
0.933561
0.760514
0.529003
0.281639
0.0600509
-0.106026
-0.204873
-0.242455
-0.236635
-0.209183
-0.178314
-0.154788
-0.141541
-0.136603
-0.136192
-0.136953
-0.137132
-0.136554
-0.135812
-0.135439
-0.13565
-0.136292
-0.136918
-0.137073
-0.136466
-0.135075
-0.133107
-0.130912
-0.128882
-0.127182
-0.125821
-0.124653
-0.123398
-0.121834
-0.119862
-0.117369
-0.114445
-0.111055
-0.107304
-0.103305
-0.0992261
-0.0953174
-0.0918449
-0.0890049
-0.0868512
-0.0853178
-0.0841834
-0.0831849
-0.0821232
-0.0810119
-0.0799051
-0.0789861
-0.0785114
-0.0785103
-0.0789507
-0.0796324
-0.0803141
-0.0806859
-0.0805971
-0.080076
-0.0792625
-0.0784708
-0.0778846
-0.0776224
-0.0776532
-0.0777645
-0.0776619
-0.0771178
-0.0759312
-0.0741514
-0.0719219
-0.0695176
-0.0672806
-0.0655212
-0.0645013
-0.0642814
-0.0648568
-0.0660686
-0.067635
-0.0693875
-0.0711868
-0.0730444
-0.0750003
-0.0771706
-0.0795955
-0.0821936
-0.0847284
-0.0868468
-0.0881186
-0.0880812
-0.086294
-0.0823843
-0.0760383
-0.0671032
-0.055762
-0.0423788
-0.0277356
-0.0128299
0.00131011
0.0138299
0.0242255
0.0324393
0.038753
0.0437726
0.0481373
0.0524345
0.0569947
0.0619183
0.0671165
0.0723417
0.0773838
0.0820757
0.0862964
0.0900673
0.093263
0.0957338
0.0972176
0.0975299
0.0965695
0.0945595
0.0920743
0.0898339
0.0885203
0.0886101
0.0901328
0.0926345
0.0953299
0.0972798
0.0978435
0.0967124
0.0939495
0.0899181
0.0851114
0.0799758
0.0748803
0.0701494
0.0660097
0.0626702
0.0602465
0.058674
0.0577988
0.0572843
0.0567825
0.055982
0.0547339
0.0530907
0.0511903
0.0492633
0.0475189
0.0460575
0.0448626
0.0438519
0.0428805
0.0418491
0.0407059
0.0394633
0.0381831
0.0368266
0.0353388
0.0335801
0.0314018
0.0287418
0.0255676
0.022014
0.0183571
0.0148221
0.011671
0.0090552
0.00695802
0.00524814
0.00384251
0.00256802
0.00137047
0.000201485
-0.000962601
-0.00211199
-0.00323135
-0.00415435
-0.00478601
-0.00485679
-0.00426018
-0.00301293
-0.00133393
0.00038693
0.00173634
0.0023111
0.00193551
0.000611076
-0.00145268
-0.00395002
-0.00657959
-0.00897374
-0.0109807
-0.0125539
-0.0136886
-0.0144837
-0.0150814
-0.0155267
-0.0158077
-0.0157392
-0.0150028
-0.0131657
-0.00977946
-0.00463594
0.00234664
0.0107775
0.0200097
0.0292552
0.0378327
0.0454303
0.0520715
0.058251
0.0645043
0.0712481
0.0784304
0.08547
0.0914405
0.0952699
0.0961894
0.093975
0.0890115
0.0822166
0.0748086
0.0680434
0.0631499
0.0609359
0.0617575
0.0651186
0.0697021
0.0735614
0.0745305
0.0708586
0.0618329
0.0480238
0.0310725
0.0131886
-0.00337239
-0.0171556
-0.0274564
-0.0345054
-0.0388946
-0.0413983
-0.0427968
-0.0437388
-0.0446597
-0.0458995
-0.0476055
-0.0497007
-0.0519642
-0.0540166
-0.0555534
-0.0562918
-0.0561688
-0.0552871
-0.0537857
-0.0518489
-0.0495848
-0.0470992
-0.0445274
-0.0421738
-0.0403609
-0.0397197
-0.0413756
-0.0467203
-0.0574091
-0.0749539
-0.100375
-0.133419
-0.171684
-0.21007
-0.240704
-0.253161
-0.235409
-0.175889
-0.0668031
0.0921675
0.29049
0.505365
0.703904
0.849649
0.911695
0.874256
0.742438
0.542107
0.312949
0.0971387
-0.0722587
-0.178878
-0.224473
-0.224267
-0.199156
-0.168011
-0.142829
-0.127862
-0.121821
-0.121063
-0.122182
-0.12314
-0.123415
-0.123407
-0.123694
-0.124665
-0.12636
-0.128567
-0.130811
-0.132539
-0.1332
-0.132495
-0.130456
-0.127464
-0.124174
-0.121124
-0.11873
-0.11715
-0.116288
-0.115872
-0.115622
-0.115283
-0.114659
-0.113539
-0.111665
-0.108841
-0.104996
-0.100347
-0.0954016
-0.0909717
-0.0878953
-0.0868271
-0.0880374
-0.0912617
-0.0958253
-0.100818
-0.105266
-0.108376
-0.10969
-0.109015
-0.106496
-0.102514
-0.0976238
-0.0924868
-0.0876877
-0.0836787
-0.080645
-0.0786167
-0.0774619
-0.0769667
-0.0769697
-0.0773469
-0.0780549
-0.0790138
-0.0801352
-0.0813468
-0.0824651
-0.0833339
-0.0838343
-0.0839152
-0.083525
-0.0827657
-0.0819466
-0.0814397
-0.0816487
-0.0829266
-0.0852632
-0.0884209
-0.0919474
-0.0952897
-0.0980296
-0.0999288
-0.101013
-0.101225
-0.100478
-0.0985866
-0.0952715
-0.0904117
-0.0840237
-0.0764724
-0.0682638
-0.0598795
-0.0516908
-0.0438586
-0.0363442
-0.0289224
-0.0215455
-0.0141861
-0.00688964
0.000204146
0.00700092
0.0135794
0.0200193
0.02647
0.0330352
0.0396973
0.046297
0.0525771
0.0582432
0.0629855
0.0665663
0.0689115
0.070085
0.0703175
0.0698582
0.0690015
0.0679429
0.066752
0.0653943
0.063883
0.0621528
0.0601027
0.0576281
0.0546067
0.050974
0.046762
0.0422813
0.0380076
0.0345623
0.032482
0.0320091
0.0329261
0.0346777
0.0364363
0.0374627
0.037214
0.0356033
0.0328281
0.0293297
0.0256186
0.0221429
0.0191837
0.0167941
0.0149817
0.0134932
0.0119828
0.0100741
0.00743343
0.00405306
0.000194439
-0.00356578
-0.00656235
-0.00826196
-0.00854647
-0.00758713
-0.00597445
-0.00428369
-0.00295788
-0.00218916
-0.00189354
-0.00187531
-0.0020068
-0.00241489
-0.00319941
-0.00457809
-0.00664689
-0.00925788
-0.0121518
-0.0149099
-0.0171942
-0.018757
-0.0195308
-0.0195554
-0.0188792
-0.0176344
-0.016002
-0.0143716
-0.013107
-0.0126219
-0.0130493
-0.0142913
-0.0158763
-0.0172177
-0.0178059
-0.0172921
-0.0157055
-0.0133019
-0.010529
-0.00770626
-0.00507798
-0.00261848
-8.20692e-5
0.00278696
0.00619367
0.0102005
0.0146053
0.0192304
0.0238441
0.0284874
0.033425
0.0390161
0.0455077
0.0528389
0.0604308
0.0673912
0.0728047
0.0759686
0.0766791
0.0750689
0.0717188
0.0671834
0.0621365
0.0571485
0.0529569
0.0504076
0.0501978
0.0525177
0.0566382
0.0608697
0.0630058
0.0608292
0.0530735
0.0397645
0.0224502
0.00360797
-0.0141377
-0.0287022
-0.0391055
-0.0454237
-0.0485751
-0.0497268
-0.0499381
-0.0499389
-0.0500983
-0.0504848
-0.0510953
-0.0519302
-0.0531239
-0.0547617
-0.0568195
-0.0590927
-0.0611493
-0.0624457
-0.0625059
-0.061094
-0.0584896
-0.0556305
-0.0542004
-0.0563964
-0.0645348
-0.0804684
-0.104959
-0.136945
-0.172718
-0.205877
-0.227297
-0.225591
-0.188645
-0.106165
0.0268718
0.206501
0.416927
0.630553
0.811933
0.925655
0.946063
0.865436
0.697511
0.474611
0.238834
0.0303186
-0.123083
-0.211126
-0.240517
-0.228986
-0.197617
-0.164011
-0.138601
-0.124561
-0.120183
-0.121614
-0.125074
-0.128191
-0.130023
-0.130526
-0.130047
-0.129053
-0.127892
-0.126874
-0.126065
-0.125441
-0.124932
-0.124385
-0.123565
-0.122369
-0.120862
-0.119261
-0.117843
-0.116753
-0.116027
-0.115508
-0.114912
-0.114079
-0.113015
-0.111889
-0.110958
-0.110393
-0.110147
-0.109846
-0.108943
-0.106965
-0.103674
-0.0990767
-0.0935888
-0.0877625
-0.0822979
-0.0777223
-0.0743944
-0.0723909
-0.0716499
-0.0720107
-0.0733367
-0.0754301
-0.0780406
-0.0808543
-0.083356
-0.0850215
-0.0854533
-0.0843994
-0.0819854
-0.0786956
-0.0752605
-0.0724249
-0.0708086
-0.0707068
-0.0720509
-0.0743696
-0.0769349
-0.0790635
-0.0801025
-0.0795596
-0.0773195
-0.0736488
-0.0691803
-0.0647247
-0.0613236
-0.0598011
-0.0606718
-0.0640355
-0.069527
-0.0766052
-0.0845797
-0.0927925
-0.100625
-0.107492
-0.11281
-0.115959
-0.116386
-0.11388
-0.108571
-0.100926
-0.0917934
-0.0821503
-0.0728808
-0.0646072
-0.0574902
-0.0513923
-0.0457234
-0.0397227
-0.0326115
-0.0238797
-0.0132952
-0.00113063
0.0120324
0.0253652
0.0380746
0.0496413
0.0598264
0.0687114
0.0765521
0.0835347
0.0898166
0.0953196
0.09984
0.103277
0.105573
0.106788
0.107095
0.106691
0.105701
0.104369
0.102909
0.101519
0.100493
0.0999514
0.099938
0.100245
0.100572
0.100572
0.0999824
0.0988124
0.0972114
0.0953721
0.0935444
0.0917627
0.0899021
0.0878286
0.0853594
0.0824966
0.0793277
0.075966
0.072598
0.0693313
0.0662561
0.0634156
0.0608877
0.0587511
0.0570162
0.0557199
0.054766
0.0540535
0.053342
0.0525411
0.0515369
0.0503254
0.0489707
0.0475605
0.0461966
0.0449964
0.0439678
0.0431004
0.0422857
0.0413649
0.0401789
0.0385542
0.03636
0.0336251
0.0305295
0.027423
0.0247082
0.0227141
0.0215755
0.0211213
0.0210983
0.0211768
0.0210657
0.020593
0.0198145
0.0188488
0.0178719
0.0169832
0.0163556
0.0160683
0.0162338
0.0168846
0.0179433
0.0191504
0.0202215
0.0208676
0.0209135
0.0203954
0.019515
0.0185277
0.0176368
0.0168559
0.0160175
0.014924
0.0135244
0.0121084
0.0111376
0.0113918
0.0135126
0.0179256
0.0246494
0.033093
0.0423343
0.051423
0.0595032
0.0662497
0.0718773
0.0770858
0.0826934
0.089307
0.0969394
0.105059
0.112611
0.118446
0.1217
0.121986
0.119585
0.115176
0.109612
0.103598
0.0975719
0.0917114
0.0861494
0.0811455
0.0772683
0.0750899
0.0748284
0.0761194
0.07782
0.0782708
0.0757697
0.0691815
0.0583129
0.0440172
0.027867
0.0116492
-0.00301298
-0.0151031
-0.0241456
-0.030153
-0.0334574
-0.0345595
-0.0341763
-0.0330453
-0.0319496
-0.0314989
-0.0320716
-0.0337007
-0.0360744
-0.0387893
-0.0413458
-0.0434349
-0.0449022
-0.0457305
-0.0460121
-0.0457194
-0.0448286
-0.0433338
-0.0413232
-0.0391959
-0.0376247
-0.0376822
-0.0408284
-0.0486733
-0.0626339
-0.0835154
-0.11117
-0.143793
-0.177484
-0.206153
-0.221727
-0.214719
-0.175036
-0.0938017
0.0340672
0.206923
0.413292
0.630856
0.828175
0.970264
1.02733
0.983394
0.842796
0.630335
0.385266
0.150729
-0.0381385
-0.162242
-0.220892
-0.228139
-0.205217
-0.172777
-0.145129
-0.128556
-0.122874
-0.124546
-0.129435
-0.134389
-0.138013
-0.140078
-0.140975
-0.14114
-0.140902
-0.140345
-0.13945
-0.138096
-0.136216
-0.133697
-0.130715
-0.127386
-0.123796
-0.120112
-0.116335
-0.112509
-0.108701
-0.105038
-0.10172
-0.0989133
-0.0966675
-0.094952
-0.0936598
-0.0925985
-0.0916568
-0.090841
-0.0901405
-0.0896094
-0.0891631
-0.0887161
-0.0881285
-0.0873454
-0.0864524
-0.0856079
-0.0849925
-0.084722
-0.0847005
-0.0847962
-0.0847874
-0.08451
-0.0838645
-0.0829193
-0.0817539
-0.0803458
-0.0787184
-0.0767662
-0.0744961
-0.0720056
-0.0695377
-0.0674532
-0.0660696
-0.0656195
-0.0661037
-0.0673283
-0.0690384
-0.0708283
-0.0723379
-0.0733252
-0.0735753
-0.0730067
-0.0717384
-0.070106
-0.0685686
-0.0676493
-0.067849
-0.0693576
-0.072291
-0.0763259
-0.0809759
-0.0857774
-0.090118
-0.0935721
-0.0957514
-0.0963119
-0.0949378
-0.0914231
-0.0855355
-0.0772521
-0.066873
-0.0550724
-0.0428
-0.0312739
-0.0215971
-0.01448
-0.0100873
-0.00788783
-0.00679369
-0.00542327
-0.0025111
0.00278504
0.0106523
0.0205599
0.0316643
0.0429001
0.0533326
0.0625025
0.0702193
0.076577
0.0817978
0.0860563
0.0894592
0.0921166
0.0941278
0.0956538
0.0968868
0.097955
0.0989955
0.0999767
0.100785
0.10127
0.101243
0.100533
0.0990109
0.0965761
0.0932813
0.0893758
0.0851957
0.081168
0.0776387
0.0748461
0.0728385
0.0714262
0.0703692
0.0693944
0.0684039
0.0674364
0.0665389
0.0658294
0.0652744
0.0647939
0.0642622
0.0636343
0.0627452
0.0615691
0.0600615
0.0582362
0.0561784
0.0540463
0.051939
0.0500946
0.0484754
0.0468974
0.0451313
0.0429134
0.0400646
0.0365416
0.0325103
0.0282097
0.0238549
0.0196738
0.0157108
0.012007
0.0086421
0.00564915
0.00312837
0.00108509
-0.000575628
-0.00199727
-0.00318514
-0.00418828
-0.00482383
-0.00490457
-0.00435268
-0.00333117
-0.00210238
-0.00125684
-0.00116127
-0.0019631
-0.00349465
-0.00533538
-0.00693232
-0.00791534
-0.00820593
-0.00800051
-0.00775358
-0.00789755
-0.0086813
-0.0102141
-0.0122988
-0.014581
-0.016834
-0.0188447
-0.0205104
-0.0217669
-0.0225704
-0.0226861
-0.0219194
-0.0201495
-0.0174459
-0.0142267
-0.0110807
-0.00860267
-0.00718034
-0.00672349
-0.00656026
-0.0057564
-0.00326081
0.00155704
0.00877164
0.0177205
0.0273543
0.0365627
0.044573
0.0512527
0.0568933
0.062042
0.0672125
0.0724736
0.0776462
0.0822344
0.0857855
0.0880008
0.0887968
0.088252
0.0866206
0.0842311
0.0814094
0.0786695
0.0766344
0.07589
0.0765584
0.0781766
0.0794619
0.078805
0.0746347
0.066114
0.0534515
0.037973
0.0216266
0.00641078
-0.00623682
-0.0157095
-0.0222619
-0.0265047
-0.0292876
-0.0313068
-0.0330622
-0.0349709
-0.0372103
-0.0398931
-0.0430012
-0.0463547
-0.0497129
-0.0527706
-0.0552294
-0.0569889
-0.0580062
-0.0583304
-0.0580164
-0.0571345
-0.0556326
-0.0535826
-0.0511795
-0.0489205
-0.0477099
-0.0490226
-0.0545856
-0.0661019
-0.0846819
-0.110323
-0.141309
-0.173799
-0.201891
-0.21817
-0.214947
-0.185285
-0.124205
-0.0291838
0.0996726
0.259204
0.442417
0.63783
0.828285
0.991227
1.10113
1.13477
1.07799
0.932147
0.716211
0.463554
0.213935
0.003106
-0.146192
-0.228537
-0.254202
-0.242896
-0.215654
-0.188414
-0.169294
-0.159515
-0.156354
-0.156374
-0.157043
-0.157326
-0.157327
-0.157355
-0.157481
-0.157658
-0.157794
-0.157926
-0.158309
-0.159113
-0.160316
-0.161801
-0.163231
-0.164161
-0.164306
-0.163475
-0.161664
-0.158964
-0.155622
-0.151933
-0.148217
-0.144704
-0.141589
-0.138885
-0.136509
-0.13417
-0.13161
-0.128627
-0.125079
-0.121183
-0.117212
-0.113521
-0.110471
-0.108318
-0.107163
-0.106975
-0.107653
-0.108976
-0.11062
-0.112322
-0.113734
-0.114609
-0.114802
-0.11433
-0.113407
-0.112278
-0.111109
-0.109947
-0.108698
-0.107168
-0.105145
-0.102517
-0.0993509
-0.0959513
-0.0926726
-0.0898742
-0.0878645
-0.0868202
-0.0867317
-0.0875002
-0.0888776
-0.0906767
-0.0927278
-0.0949671
-0.0974315
-0.10013
-0.102986
-0.105808
-0.108347
-0.110372
-0.111705
-0.112193
-0.111727
-0.110196
-0.107265
-0.102606
-0.0959249
-0.0871824
-0.0765916
-0.064668
-0.0522648
-0.0402083
-0.029269
-0.0199394
-0.0123555
-0.00633193
-0.00153114
0.00249709
0.00610943
0.00962302
0.0132252
0.0170904
0.0213085
0.0259557
0.0310618
0.0364779
0.0420384
0.04749
0.052612
0.0573031
0.0614786
0.0651906
0.0684798
0.0714786
0.0741619
0.0765107
0.0784876
0.0799627
0.0808887
0.0812398
0.0810955
0.0805577
0.0798336
0.0790731
0.0784631
0.0780112
0.0777427
0.0775887
0.0774603
0.0771497
0.076561
0.0754439
0.0735898
0.0708168
0.0670306
0.0623129
0.0570313
0.0516194
0.0467
0.0427965
0.0402424
0.0391753
0.0393964
0.0405276
0.041922
0.0429802
0.0431967
0.0423031
0.0402854
0.0374211
0.0339901
0.0303473
0.0266075
0.022814
0.0189831
0.0153044
0.0118984
0.00909888
0.00716772
0.00614334
0.0059039
0.00622885
0.00672251
0.00716706
0.00733531
0.00706583
0.00628855
0.00486218
0.00272393
-0.000160463
-0.00362372
-0.00743596
-0.011202
-0.014522
-0.0170738
-0.0187213
-0.0194512
-0.0195027
-0.0191441
-0.0186926
-0.0184603
-0.0185949
-0.0190674
-0.0197199
-0.0202418
-0.0203722
-0.0198476
-0.0187411
-0.017256
-0.0157808
-0.0146492
-0.0141012
-0.0141155
-0.0145311
-0.015013
-0.01534
-0.0153451
-0.0149926
-0.0144595
-0.0139956
-0.0138943
-0.0144428
-0.0159002
-0.0182372
-0.0211934
-0.0241101
-0.0260339
-0.025945
-0.0229572
-0.0166169
-0.00731523
0.00399924
0.0157707
0.0264859
0.035038
0.0410947
0.0452175
0.0485516
0.05237
0.057681
0.0646269
0.0726376
0.0804292
0.0866036
0.0900411
0.090283
0.0874801
0.0823223
0.075874
0.0691776
0.0632247
0.0587854
0.0565231
0.0568799
0.059647
0.063811
0.0675986
0.0687125
0.0650588
0.0554586
0.0401769
0.0210313
0.000785963
-0.0175895
-0.0318351
-0.0408936
-0.0451011
-0.0456194
-0.0439564
-0.0414686
-0.039144
-0.0375343
-0.036925
-0.037563
-0.0396857
-0.0434632
-0.0488652
-0.0554951
-0.0626297
-0.069377
-0.0748182
-0.0782507
-0.0794652
-0.07872
-0.0766706
-0.0740842
-0.0715277
-0.069354
-0.0676009
-0.066122
-0.0649784
-0.0647214
-0.0664278
-0.0717003
-0.0822818
-0.0996367
-0.124332
-0.155561
-0.190372
-0.223236
-0.245842
-0.247399
-0.215841
-0.140316
-0.0148691
0.15742
0.361642
0.570707
0.749417
0.862505
0.88435
0.807378
0.645537
0.431219
0.206013
0.00891273
-0.133772
-0.213516
-0.238156
-0.225782
-0.196721
-0.167035
-0.145446
-0.133939
-0.130276
-0.131102
-0.133713
-0.136641
-0.139354
-0.141646
-0.14323
-0.143672
-0.142767
-0.14063
-0.137668
-0.134508
-0.131578
-0.128998
-0.126567
-0.123969
-0.120958
-0.117565
-0.114085
-0.111024
-0.108947
-0.108106
-0.108396
-0.10949
-0.110804
-0.111628
-0.111662
-0.110649
-0.108689
-0.106092
-0.103223
-0.10046
-0.0981026
-0.0963361
-0.0951598
-0.0944396
-0.0939327
-0.0932991
-0.0922497
-0.09064
-0.0885412
-0.086187
-0.0839396
-0.0820935
-0.080785
-0.079959
-0.0793001
-0.0785116
-0.0773123
-0.0754954
-0.0731592
-0.0706061
-0.0682463
-0.0666055
-0.0660266
-0.066595
-0.0681643
-0.0703018
-0.0723574
-0.073681
-0.0738204
-0.0725702
-0.0700326
-0.0666247
-0.0630022
-0.0599403
-0.0580814
-0.0580108
-0.0599972
-0.0639036
-0.0693648
-0.0757291
-0.0822703
-0.0882804
-0.0931998
-0.0966267
-0.0983093
-0.0981372
-0.0960919
-0.0922312
-0.0868421
-0.0803325
-0.0731827
-0.065922
-0.058971
-0.0526583
-0.0470112
-0.0418606
-0.0368346
-0.0314365
-0.0251242
-0.0174535
-0.00841456
0.00168329
0.0121416
0.0220007
0.0304987
0.0371813
0.0421496
0.046042
0.0495514
0.0532621
0.05733
0.0615346
0.0654071
0.0685223
0.0707492
0.0722013
0.0732764
0.074264
0.0752633
0.0762243
0.0769662
0.0772349
0.0770492
0.0764807
0.0757369
0.0749882
0.0743507
0.0737718
0.0731748
0.0724117
0.0713419
0.0698676
0.0680138
0.0657838
0.0634647
0.0614011
0.0599019
0.0590777
0.0588832
0.0589293
0.0587794
0.0581231
0.0567435
0.0547442
0.052326
0.0497098
0.0469179
0.043873
0.040279
0.036031
0.0312281
0.0262626
0.02168
0.0179057
0.015042
0.0127589
0.0104055
0.0073348
0.0032999
-0.00136187
-0.00584509
-0.00916375
-0.010579
-0.00988038
-0.00756097
-0.00447942
-0.00153677
0.000552836
0.00150615
0.00127254
2.06142e-5
-0.0021839
-0.00529132
-0.00920757
-0.0135789
-0.0178157
-0.021112
-0.0227811
-0.0224694
-0.0202559
-0.0168427
-0.0131807
-0.0101672
-0.0083139
-0.00782362
-0.00839588
-0.00968
-0.0113747
-0.0133452
-0.0156301
-0.0183396
-0.0214744
-0.02493
-0.0283652
-0.0312675
-0.0331279
-0.0336419
-0.0327148
-0.0305988
-0.0277765
-0.0248003
-0.0220019
-0.019399
-0.0165428
-0.0128596
-0.0078946
-0.00160636
0.0056133
0.0129412
0.019618
0.0252978
0.0300817
0.034604
0.039484
0.045187
0.0516479
0.058311
0.0643746
0.0692147
0.07246
0.0741166
0.0744594
0.0738378
0.0725232
0.0705737
0.0679383
0.0645251
0.060328
0.0555219
0.0505235
0.0459362
0.0424331
0.0405058
0.0401061
0.0406868
0.0411162
0.0400796
0.0363624
0.029252
0.0188578
0.0060016
-0.0079807
-0.0214974
-0.0331851
-0.0421248
-0.0479275
-0.0508224
-0.0514384
-0.0506336
-0.0492782
-0.0481533
-0.0476846
-0.0480889
-0.0493471
-0.0512526
-0.0535956
-0.0560445
-0.0583709
-0.0603853
-0.0618685
-0.0626448
-0.0626978
-0.0621614
-0.0612731
-0.0605077
-0.0606801
-0.0629348
-0.0686679
-0.0793155
-0.0959429
-0.118875
-0.14698
-0.177031
-0.203484
-0.218586
-0.212703
-0.175162
-0.0964796
0.0289586
0.199393
0.402819
0.615901
0.806508
0.93991
0.987718
0.936425
0.792486
0.582013
0.343852
0.119004
-0.0601293
-0.176884
-0.231766
-0.238455
-0.216739
-0.185375
-0.157291
-0.138241
-0.128474
-0.125287
-0.125407
-0.12635
-0.126927
-0.12671
-0.125643
-0.123724
-0.121138
-0.118044
-0.114853
-0.111927
-0.109518
-0.107768
-0.106504
-0.105603
-0.104884
-0.104223
-0.103661
-0.103243
-0.102944
-0.102787
-0.102674
-0.102549
-0.102338
-0.102065
-0.101744
-0.10139
-0.100899
-0.100204
-0.0991656
-0.0977119
-0.0959141
-0.0938909
-0.0917563
-0.0896559
-0.0875874
-0.085483
-0.0833033
-0.0811144
-0.0790855
-0.077474
-0.0764644
-0.0761128
-0.0761881
-0.0763107
-0.0760644
-0.0751095
-0.0734909
-0.071374
-0.0691564
-0.0672468
-0.0658847
-0.0651438
-0.0649748
-0.0651244
-0.0653622
-0.0654679
-0.0652596
-0.0646535
-0.0636585
-0.0623609
-0.0609364
-0.0595818
-0.058504
-0.0577655
-0.0575387
-0.0578918
-0.0590025
-0.0609481
-0.063807
-0.06748
-0.0718265
-0.0765229
-0.0810705
-0.0849928
-0.087813
-0.0889774
-0.0881639
-0.0851281
-0.0797589
-0.0722642
-0.0630576
-0.0528897
-0.04268
-0.033428
-0.0259903
-0.0209419
-0.0183632
-0.0178395
-0.0185186
-0.0193984
-0.0194249
-0.017767
-0.0138948
-0.00771288
0.000499814
0.0102079
0.020814
0.0317596
0.0426408
0.0532683
0.0635581
0.073431
0.0827524
0.0912882
0.098756
0.104932
0.109789
0.11345
0.116211
0.118363
0.120165
0.121718
0.123022
0.123967
0.124451
0.124429
0.124007
0.123367
0.122733
0.122293
0.122052
0.121937
0.121701
0.121054
0.119693
0.117436
0.1143
0.11044
0.106219
0.102077
0.0983336
0.0952476
0.0927399
0.090566
0.0883721
0.0858955
0.0830024
0.0798132
0.0765902
0.0737019
0.0713818
0.06964
0.0683173
0.0670802
0.0655948
0.0636202
0.0612377
0.058691
0.0563827
0.0546158
0.0536059
0.0531716
0.052896
0.0522129
0.0505576
0.0475328
0.0432195
0.0380115
0.032649
0.0279336
0.0244694
0.0225112
0.0218883
0.0221101
0.0225815
0.0227775
0.0223861
0.0214349
0.0200396
0.0184204
0.0168403
0.0154168
0.014221
0.0132877
0.0125562
0.0121445
0.0119569
0.0120289
0.0122528
0.0124336
0.0123207
0.0117499
0.0106382
0.00906988
0.00727507
0.00555633
0.00407238
0.00281228
0.00159804
0.000194869
-0.00156185
-0.00363848
-0.00587259
-0.00794407
-0.00956271
-0.0105426
-0.011011
-0.0112167
-0.0114801
-0.0120935
-0.0129591
-0.013773
-0.0137426
-0.0120123
-0.0077948
-0.00065356
0.00927278
0.0212122
0.0339251
0.0460419
0.056398
0.0643389
0.0699823
0.0739495
0.0771538
0.0803454
0.0838112
0.0872825
0.0901957
0.0918397
0.0917194
0.0897453
0.0862512
0.0817777
0.0769333
0.0724718
0.0690461
0.0673831
0.068024
0.0710353
0.0757899
0.0807996
0.0840295
0.0836081
0.0782299
0.0678518
0.053619
0.0375475
0.0217135
0.0076841
-0.00383706
-0.0129144
-0.0199537
-0.02539
-0.0294906
-0.0323493
-0.0341033
-0.0349876
-0.035486
-0.0360294
-0.0369519
-0.0383878
-0.0401341
-0.0418715
-0.0433049
-0.0442522
-0.044657
-0.0445329
-0.0438731
-0.0428484
-0.0416549
-0.040588
-0.0402424
-0.0416434
-0.0462168
-0.0555474
-0.071023
-0.0935072
-0.122628
-0.155959
-0.188493
-0.212597
-0.2182
-0.193713
-0.12786
-0.0127024
0.152852
0.359464
0.585633
0.799019
0.961981
1.04066
1.01484
0.885324
0.675293
0.424738
0.179563
-0.0213298
-0.155415
-0.220047
-0.229016
-0.204779
-0.169793
-0.139938
-0.122357
-0.116917
-0.119658
-0.125973
-0.132461
-0.137639
-0.141249
-0.143569
-0.144826
-0.144959
-0.143995
-0.142034
-0.139334
-0.136306
-0.13337
-0.130859
-0.128906
-0.127541
-0.126622
-0.125916
-0.125088
-0.123883
-0.122055
-0.119442
-0.116153
-0.112428
-0.10858
-0.104951
-0.10177
-0.0990327
-0.0965932
-0.0942359
-0.0918011
-0.0891806
-0.0864163
-0.0836745
-0.0810224
-0.0784811
-0.0760236
-0.0736352
-0.0713358
-0.0693032
-0.0678888
-0.0673288
-0.0677821
-0.06916
-0.0712456
-0.0735124
-0.0755467
-0.0769914
-0.0775949
-0.0773045
-0.0762027
-0.0744332
-0.0721882
-0.0697032
-0.067204
-0.0647651
-0.0624405
-0.0602072
-0.0580381
-0.0559738
-0.0541155
-0.0525713
-0.0514842
-0.0508664
-0.0507539
-0.0510167
-0.0516125
-0.0525544
-0.0539644
-0.0559457
-0.0586408
-0.0620845
-0.0660634
-0.0702317
-0.074086
-0.0769328
-0.0780491
-0.0767924
-0.0727173
-0.0657049
-0.0560802
-0.0445712
-0.0320958
-0.0196276
-0.00801105
0.0021941
0.0108237
0.0179639
0.0240238
0.0295212
0.0350622
0.0410976
0.0479101
0.0554034
0.0631754
0.0705523
0.0769932
0.0820966
0.0857622
0.0881421
0.0895708
0.0903437
0.0906974
0.090748
0.0905028
0.0899817
0.0891583
0.0880832
0.0868679
0.0856006
0.0844228
0.0835884
0.0832702
0.0835598
0.0844545
0.0857042
0.0870019
0.0878917
0.0879719
0.0869749
0.0847956
0.0817188
0.0781352
0.0745565
0.0714057
0.0688562
0.0668013
0.0649468
0.0628216
0.0601743
0.0569647
0.0533557
0.0497679
0.0466262
0.0441213
0.0422987
0.041018
0.0399953
0.0389825
0.0378389
0.0364363
0.0347601
0.0327403
0.0304053
0.0277567
0.0248417
0.0218225
0.0187989
0.0158486
0.0129973
0.0102727
0.00767962
0.00528912
0.0030907
0.00115748
-0.000639304
-0.0023709
-0.00405411
-0.00561697
-0.00685348
-0.00743587
-0.00715645
-0.00594519
-0.00405966
-0.00202663
-0.000377959
0.000466568
0.00035066
-0.000506939
-0.00165431
-0.00260281
-0.00297964
-0.00270412
-0.00198236
-0.00116824
-0.000634709
-0.000765543
-0.00170906
-0.00348217
-0.00595665
-0.00892287
-0.0120488
-0.0150526
-0.0176848
-0.0196841
-0.0209013
-0.0212589
-0.0208208
-0.0198215
-0.0185479
-0.0173188
-0.0163274
-0.0154406
-0.014213
-0.0118703
-0.00771627
-0.00132358
0.00721194
0.0172286
0.0276487
0.0373986
0.0457346
0.0524782
0.0579713
0.0628499
0.0677278
0.0728847
0.078132
0.0830341
0.0869544
0.0893669
0.089994
0.0888566
0.0862316
0.082473
0.0778828
0.0728078
0.0675756
0.0625414
0.0582454
0.0552083
0.0540029
0.0548479
0.0573034
0.0601554
0.061703
0.0602248
0.0545197
0.0444193
0.0308913
0.0156277
0.00064167
-0.0125698
-0.0231557
-0.031117
-0.0369696
-0.0413844
-0.0449031
-0.0479029
-0.0505946
-0.05306
-0.0552883
-0.057247
-0.0587706
-0.059676
-0.059825
-0.0590893
-0.0575789
-0.0555051
-0.0531337
-0.0507387
-0.0485736
-0.0468777
-0.0459282
-0.0462229
-0.0488535
-0.0552505
-0.0671446
-0.0859135
-0.112277
-0.145357
-0.182014
-0.216544
-0.241006
-0.245542
-0.219341
-0.152297
-0.0375305
0.125338
0.326902
0.546141
0.751643
0.906967
0.979607
0.950619
0.821743
0.616571
0.374779
0.140792
-0.0484779
-0.172773
-0.230917
-0.237134
-0.213112
-0.179651
-0.150865
-0.132677
-0.124602
-0.123214
-0.124753
-0.12675
-0.128165
-0.128893
-0.129097
-0.128751
-0.127789
-0.126141
-0.123908
-0.121391
-0.119021
-0.117122
-0.115943
-0.115525
-0.11568
-0.116035
-0.116164
-0.115634
-0.114259
-0.111971
-0.10893
-0.105458
-0.101913
-0.0985224
-0.0955185
-0.0929551
-0.0908332
-0.0891338
-0.0879139
-0.0872299
-0.0870906
-0.0873789
-0.0877834
-0.0879292
-0.0874707
-0.0861947
-0.0841388
-0.08164
-0.0791417
-0.0769278
-0.0751321
-0.0735328
-0.0718169
-0.0697347
-0.0671352
-0.0641889
-0.0612221
-0.0585843
-0.0565259
-0.0551738
-0.0544267
-0.054171
-0.0543388
-0.0548622
-0.0557793
-0.0571263
-0.0587258
-0.0603536
-0.0616768
-0.0624434
-0.0625445
-0.0620461
-0.0613018
-0.0606888
-0.0604727
-0.0606522
-0.0611423
-0.061843
-0.0626833
-0.0638455
-0.0655876
-0.0680448
-0.0710316
-0.0739827
-0.0760055
-0.0762092
-0.0739248
-0.0688846
-0.0613049
-0.0519869
-0.0419219
-0.0320716
-0.0234035
-0.0163067
-0.0108155
-0.00645422
-0.0024629
0.00181374
0.00682056
0.0126869
0.0191767
0.0258391
0.0323005
0.0384808
0.0444486
0.0504276
0.0565852
0.0629137
0.069092
0.0747197
0.079378
0.0827907
0.0849595
0.0860352
0.0863088
0.0860111
0.085323
0.0842377
0.0827565
0.08087
0.0786984
0.0764534
0.0743342
0.0724815
0.0709953
0.0697186
0.068512
0.0671134
0.0654053
0.0633188
0.060848
0.0580742
0.0551364
0.0521697
0.0494086
0.0470797
0.0453378
0.0442303
0.0436065
0.0431678
0.0424529
0.0410945
0.0388559
0.0356355
0.0316591
0.0271704
0.0225389
0.0179945
0.0136916
0.00968945
0.00598579
0.00264872
-0.000194631
-0.00226549
-0.0033563
-0.00346744
-0.00286724
-0.00211127
-0.00192328
-0.00285469
-0.00508467
-0.00830554
-0.011863
-0.0149272
-0.0168601
-0.01743
-0.0167826
-0.0154677
-0.014206
-0.0136657
-0.0143068
-0.0162548
-0.0193447
-0.0231882
-0.0272548
-0.0311127
-0.0343881
-0.036849
-0.038371
-0.0389126
-0.0383979
-0.0368777
-0.0345195
-0.0315867
-0.0285062
-0.0257128
-0.0235013
-0.0220468
-0.0213735
-0.0213735
-0.0220281
-0.0232479
-0.0250167
-0.0272541
-0.0297617
-0.0322752
-0.0345248
-0.0362753
-0.0373665
-0.0376516
-0.0368916
-0.0346289
-0.0304827
-0.0241996
-0.0159871
-0.00661126
0.00282447
0.0113418
0.0184171
0.02422
0.0295427
0.0354112
0.0425229
0.050902
0.0598917
0.0682645
0.074905
0.0789886
0.0803076
0.0790989
0.0757524
0.0707332
0.0643913
0.0571604
0.0497319
0.0432403
0.0389598
0.0378182
0.0400496
0.0446132
0.0495647
0.0525331
0.0514751
0.0451754
0.0338378
0.0187643
0.00201218
-0.0142223
-0.0281817
-0.0386991
-0.0454031
-0.0485148
-0.0488128
-0.0474751
-0.0457735
-0.044871
-0.0453884
-0.047558
-0.0509935
-0.0550939
-0.0592286
-0.063032
-0.0664156
-0.0694514
-0.0721888
-0.0743037
-0.0754343
-0.0752188
-0.0736138
-0.0710363
-0.0686364
-0.0680186
-0.0710111
-0.0793821
-0.094412
-0.116745
-0.145644
-0.178271
-0.20917
-0.230073
-0.230683
-0.199799
-0.127765
-0.00894683
0.155583
0.356213
0.574447
0.784631
0.957573
1.06594
1.09008
1.02305
0.873125
0.662587
0.423088
0.188647
-0.0116793
-0.159399
-0.248822
-0.285994
-0.284731
-0.261479
-0.230817
-0.202833
-0.182502
-0.170553
-0.165161
-0.163677
-0.163899
-0.164444
-0.164848
-0.165092
-0.165226
-0.165232
-0.1649
-0.164032
-0.162537
-0.160649
-0.158878
-0.157564
-0.156856
-0.156495
-0.155857
-0.154293
-0.151626
-0.148092
-0.144428
-0.141486
-0.139751
-0.139241
-0.139349
-0.139181
-0.137931
-0.135271
-0.13138
-0.126931
-0.122793
-0.119726
-0.118079
-0.117936
-0.119011
-0.120832
-0.122913
-0.124822
-0.126166
-0.126785
-0.126594
-0.125627
-0.124119
-0.122329
-0.120489
-0.118771
-0.117276
-0.115957
-0.114826
-0.113754
-0.112591
-0.111249
-0.109626
-0.107647
-0.105477
-0.103354
-0.101649
-0.100627
-0.100497
-0.101047
-0.101855
-0.102406
-0.102285
-0.101431
-0.100293
-0.0996475
-0.100433
-0.103381
-0.108659
-0.115927
-0.124251
-0.132521
-0.139539
-0.144352
-0.146244
-0.144888
-0.140224
-0.132378
-0.121736
-0.108794
-0.0940352
-0.0780448
-0.0612725
-0.0441954
-0.0273127
-0.0111982
0.00350537
0.0163333
0.0269649
0.0354918
0.0422663
0.0478597
0.0527392
0.0572758
0.0614967
0.0653173
0.0686524
0.0716013
0.0743671
0.0772122
0.0802566
0.0834165
0.086326
0.0885514
0.0897923
0.0899859
0.0893161
0.0881208
0.0868062
0.0856583
0.0848518
0.0843079
0.0838725
0.0832194
0.0821472
0.0804861
0.0782388
0.0755857
0.0728272
0.0701431
0.0676814
0.0653698
0.0629415
0.060107
0.0567176
0.0528538
0.0488141
0.0449514
0.0415855
0.0388072
0.0366327
0.0349002
0.0335635
0.032767
0.032643
0.0332333
0.0343109
0.0353028
0.0354163
0.0340093
0.0308461
0.0262305
0.0210865
0.0163678
0.012864
0.0109346
0.0103057
0.0103027
0.0101541
0.00933334
0.0077502
0.00580452
0.00410513
0.00324121
0.00338912
0.00434479
0.00557916
0.00652752
0.00677336
0.00629552
0.00538656
0.00448804
0.00384367
0.00357548
0.00349706
0.00330636
0.00268575
0.00149422
-0.000457269
-0.00320969
-0.00668386
-0.0106896
-0.0148834
-0.0188344
-0.0220616
-0.0242383
-0.0252445
-0.0251713
-0.0241379
-0.0223454
-0.0197263
-0.0161248
-0.0113954
-0.00548822
0.00147772
0.00915563
0.0172271
0.0253962
0.0334723
0.0413506
0.0488565
0.055872
0.0620528
0.0670954
0.0707491
0.0728515
0.0734032
0.0724425
0.0700271
0.0662275
0.0610706
0.0547507
0.0478523
0.0411925
0.035885
0.0330875
0.0335045
0.0371943
0.0430901
0.0493211
0.0536328
0.0540891
0.049586
0.0401615
0.026976
0.0117993
-0.0033537
-0.0170655
-0.0283222
-0.036905
-0.0429547
-0.0469308
-0.0493504
-0.0505917
-0.0510736
-0.0511229
-0.0509543
-0.0508672
-0.0512157
-0.0521632
-0.053786
-0.0558706
-0.0580008
-0.0597667
-0.0606931
-0.0605231
-0.0592689
-0.0571626
-0.0547378
-0.0525343
-0.0513073
-0.05204
-0.0561282
-0.0649593
-0.0798894
-0.101698
-0.129823
-0.161444
-0.191022
-0.210453
-0.209072
-0.175064
-0.0979207
0.0284049
0.201814
0.409006
0.62474
0.814863
0.943469
0.98233
0.919832
0.765667
0.549318
0.312031
0.0953695
-0.0699442
-0.170547
-0.210767
-0.207288
-0.181305
-0.151238
-0.128229
-0.11591
-0.112581
-0.114303
-0.11732
-0.119336
-0.119715
-0.118857
-0.117367
-0.115836
-0.114599
-0.113746
-0.113213
-0.112896
-0.112613
-0.112188
-0.111305
-0.109693
-0.107127
-0.10353
-0.0991332
-0.0943662
-0.0898412
-0.0861251
-0.0835708
-0.0821606
-0.0816779
-0.0816886
-0.0817851
-0.0817722
-0.0815367
-0.0810775
-0.0804699
-0.0796416
-0.0786326
-0.077466
-0.0762858
-0.0754047
-0.075098
-0.0756328
-0.077018
-0.0790325
-0.0812611
-0.0831551
-0.0842663
-0.0843437
-0.0833281
-0.0813237
-0.0786129
-0.0754727
-0.0722029
-0.069083
-0.0663433
-0.064175
-0.0627017
-0.0619221
-0.0617752
-0.0621898
-0.063029
-0.0641894
-0.0654929
-0.0668125
-0.0680137
-0.0689322
-0.069606
-0.0700777
-0.0706176
-0.0714829
-0.0729659
-0.075363
-0.0788195
-0.0832719
-0.0883881
-0.0937404
-0.0987144
-0.10279
-0.10557
-0.106864
-0.106601
-0.104654
-0.100855
-0.0949346
-0.0866831
-0.0760635
-0.0633361
-0.0490836
-0.0342068
-0.0195487
-0.00585253
0.00643333
0.0172708
0.0269645
0.0359799
0.0448434
0.0538596
0.0630093
0.0719807
0.0802955
0.0874515
0.0931564
0.0973341
0.100225
0.102201
0.103678
0.105036
0.106445
0.107957
0.10948
0.110944
0.112168
0.113061
0.113415
0.113077
0.111839
0.109615
0.106365
0.102232
0.0974292
0.0923778
0.0874869
0.0831074
0.0795177
0.076791
0.0748478
0.073424
0.0722185
0.071032
0.069731
0.0683699
0.0671873
0.0663575
0.0658773
0.0655878
0.0651396
0.0640979
0.0622194
0.0594061
0.0558219
0.0518313
0.0477952
0.0440322
0.0407165
0.0378645
0.0354045
0.0332779
0.0313717
0.0296544
0.0279739
0.026227
0.0243207
0.0223271
0.0204111
0.0188017
0.0178448
0.0177336
0.0184254
0.0196036
0.0207765
0.0214071
0.0210242
0.0194959
0.0169502
0.0137678
0.0104573
0.00740466
0.00493285
0.00319647
0.00213236
0.00163041
0.00153852
0.00162968
0.00160499
0.00108333
-0.000162437
-0.0021262
-0.00447086
-0.00666887
-0.00812204
-0.00837608
-0.00749301
-0.00581551
-0.00402823
-0.00281713
-0.0026566
-0.00364257
-0.00543882
-0.00756127
-0.00947913
-0.0108167
-0.01151
-0.011616
-0.0113246
-0.0108057
-0.00996597
-0.00836251
-0.00553529
-0.00105468
0.0052877
0.0133667
0.0226371
0.032452
0.0421042
0.0511345
0.0592296
0.0663564
0.0725971
0.0779802
0.0824743
0.085929
0.0881686
0.0890808
0.088571
0.0866591
0.0835224
0.0793159
0.0745397
0.0697317
0.0656893
0.0632458
0.0630604
0.0650251
0.0684739
0.0719171
0.0735124
0.0715326
0.0650352
0.0539779
0.0393313
0.0227344
0.00612535
-0.00896696
-0.0215027
-0.0311899
-0.038245
-0.0431876
-0.046615
-0.049104
-0.0510494
-0.0526993
-0.0541709
-0.0553909
-0.0563507
-0.0569127
-0.057016
-0.0567221
-0.0562335
-0.0557312
-0.0555119
-0.0557255
-0.0562555
-0.0567911
-0.0569653
-0.0565229
-0.0554398
-0.0540619
-0.053362
-0.0547922
-0.0601845
-0.0712427
-0.0891893
-0.114226
-0.144926
-0.177766
-0.206916
-0.224556
-0.221239
-0.186682
-0.111332
0.0110987
0.18029
0.386099
0.60677
0.810415
0.960654
1.0256
0.987571
0.849879
0.637439
0.390629
0.153905
-0.0366052
-0.16157
-0.220807
-0.229023
-0.207926
-0.177916
-0.152551
-0.137292
-0.131386
-0.131376
-0.13363
-0.135967
-0.137671
-0.138798
-0.139626
-0.1402
-0.140437
-0.14021
-0.139573
-0.138709
-0.1377
-0.136571
-0.135325
-0.133726
-0.131645
-0.129067
-0.126075
-0.122937
-0.119908
-0.117122
-0.114501
-0.111859
-0.108968
-0.105678
-0.102113
-0.0985051
-0.0952395
-0.0925788
-0.0905234
-0.0889685
-0.0876993
-0.0864953
-0.0853459
-0.0844182
-0.0839349
-0.0840608
-0.0848052
-0.0859439
-0.0870331
-0.0876192
-0.087315
-0.0859376
-0.0836175
-0.0807565
-0.077918
-0.0756064
-0.0741924
-0.0736355
-0.0737
-0.0740062
-0.0742596
-0.074308
-0.0742172
-0.0742419
-0.0746091
-0.075418
-0.0764587
-0.0774892
-0.0780908
-0.078052
-0.0774178
-0.0765206
-0.0757435
-0.0753818
-0.0755076
-0.075908
-0.0762326
-0.0761927
-0.0758749
-0.0756321
-0.0759929
-0.0773881
-0.0797906
-0.0826796
-0.0851169
-0.0859923
-0.08425
-0.0792834
-0.0710973
-0.0602205
-0.0477926
-0.0352045
-0.0238991
-0.0149327
-0.00891013
-0.00564351
-0.00436222
-0.00384579
-0.00288843
-0.000597597
0.00346962
0.00916026
0.015977
0.0232095
0.0303868
0.0371223
0.0433511
0.0491603
0.0546822
0.0599968
0.0651615
0.0701116
0.0747747
0.0790029
0.0826261
0.0854972
0.0874886
0.0885541
0.0887147
0.0880263
0.08663
0.0846364
0.0822236
0.0795073
0.0767229
0.0740484
0.0715481
0.0692224
0.0669881
0.0649069
0.0629278
0.0611695
0.0597952
0.0588857
0.0584407
0.0583802
0.058441
0.0583155
0.0576848
0.0563148
0.05409
0.0509821
0.0471589
0.0429595
0.0387517
0.0348862
0.0316926
0.0292384
0.0274092
0.0260379
0.0247987
0.0234323
0.0217691
0.019841
0.0178438
0.015941
0.0142888
0.0129507
0.0118114
0.0107172
0.00955483
0.00818041
0.00664117
0.00507285
0.00365048
0.00255088
0.00184302
0.00151465
0.00140358
0.00120141
0.000634015
-0.00052166
-0.00244601
-0.00504901
-0.00812336
-0.0113344
-0.0143964
-0.0170745
-0.019147
-0.0206367
-0.0216006
-0.0222361
-0.0227724
-0.023435
-0.0244194
-0.0257533
-0.0272972
-0.0286823
-0.0295407
-0.0294658
-0.0283715
-0.0264327
-0.0240346
-0.0216951
-0.0198128
-0.0186135
-0.0181522
-0.0183293
-0.0190855
-0.0203364
-0.0220175
-0.0240245
-0.0260554
-0.0277341
-0.0287669
-0.0289414
-0.0283418
-0.0271609
-0.025663
-0.0240716
-0.0223433
-0.0201707
-0.0171358
-0.0127664
-0.00677834
0.000669691
0.00912704
0.0178715
0.026108
0.0333636
0.0395518
0.0450451
0.0505005
0.0564735
0.063263
0.0706446
0.0779756
0.0843635
0.0890122
0.0914226
0.0915593
0.0898037
0.0867587
0.0829837
0.0788678
0.0747033
0.0706557
0.0670952
0.0645368
0.063591
0.064495
0.066893
0.0697286
0.0713464
0.070109
0.0648908
0.055454
0.0426548
0.0280077
0.0133031
2.10913e-5
-0.0109819
-0.0195831
-0.0260702
-0.0309691
-0.0346516
-0.03731
-0.0389969
-0.0397688
-0.0397998
-0.0394377
-0.0392466
-0.0396857
-0.0410853
-0.0433398
-0.0461531
-0.0489737
-0.0512957
-0.052907
-0.0538419
-0.0543158
-0.0545668
-0.0545216
-0.0540332
-0.0528696
-0.0510287
-0.0488884
-0.0475377
-0.0485579
-0.0537939
-0.0648843
-0.0828996
-0.107978
-0.13885
-0.172506
-0.204138
-0.227341
-0.234646
-0.218104
-0.17001
-0.0840825
0.0428827
0.208686
0.403208
0.607195
0.793219
0.929959
0.989457
0.955378
0.829314
0.632109
0.399279
0.171261
-0.0172711
-0.14582
-0.211223
-0.224988
-0.206704
-0.176202
-0.148081
-0.129462
-0.121031
-0.119919
-0.122352
-0.1254
-0.127637
-0.128648
-0.128639
-0.127966
-0.126837
-0.12543
-0.123932
-0.122459
-0.121082
-0.119811
-0.118661
-0.117456
-0.116092
-0.114408
-0.112224
-0.109487
-0.106325
-0.103002
-0.0998056
-0.0970349
-0.0947525
-0.0928472
-0.0910939
-0.0892355
-0.0871278
-0.0848365
-0.0824993
-0.080389
-0.0786699
-0.0773881
-0.0764782
-0.0758105
-0.0752564
-0.0748117
-0.0744779
-0.0744092
-0.0745675
-0.0749221
-0.0753147
-0.0755359
-0.0754772
-0.0750937
-0.0744632
-0.0737426
-0.0731203
-0.0727035
-0.0725514
-0.0726474
-0.0729135
-0.0732943
-0.0736413
-0.0738478
-0.0737927
-0.0733366
-0.072414
-0.070989
-0.0691823
-0.0671917
-0.0652427
-0.063455
-0.0618541
-0.0604095
-0.0590983
-0.0580017
-0.0573184
-0.0572706
-0.0581166
-0.0599914
-0.0628771
-0.0666141
-0.0708752
-0.0751543
-0.0788504
-0.0811979
-0.0814698
-0.0789627
-0.0733964
-0.0648611
-0.0539743
-0.0418217
-0.0296905
-0.0188966
-0.0104205
-0.00475466
-0.00181489
-0.000937497
-0.00120936
-0.00158541
-0.00122468
0.000344908
0.00318684
0.00694875
0.0111963
0.015497
0.0196232
0.023543
0.0274576
0.0315577
0.0359512
0.0405136
0.0449602
0.0489707
0.0522842
0.0547822
0.0565
0.057549
0.0581096
0.0583998
0.058681
0.0591821
0.0602226
0.0618772
0.0641043
0.0666543
0.0690773
0.0709891
0.0721219
0.0724667
0.0722502
0.0717557
0.0712754
0.0708455
0.0703498
0.0695224
0.0681212
0.0659973
0.0633046
0.0602679
0.0572997
0.0546925
0.0525335
0.0507744
0.0491422
0.0472833
0.0448221
0.0416021
0.0375969
0.0331966
0.0288286
0.025069
0.0223765
0.0208482
0.0203269
0.0204062
0.0205425
0.0203675
0.019588
0.0182831
0.0165755
0.0146894
0.0127433
0.0107789
0.00873753
0.00652125
0.00395658
0.000919555
-0.00256581
-0.00642691
-0.0103752
-0.0141316
-0.0173319
-0.0197982
-0.0214754
-0.0226191
-0.0235316
-0.024624
-0.0262109
-0.0281938
-0.0303051
-0.0320993
-0.0330492
-0.0329309
-0.0317113
-0.0297523
-0.0275555
-0.0257149
-0.02469
-0.0247307
-0.0258719
-0.027882
-0.0303777
-0.0328946
-0.035108
-0.0367936
-0.0380003
-0.0388861
-0.0397551
-0.0407368
-0.0418704
-0.0429635
-0.0438117
-0.044198
-0.044003
-0.0433845
-0.0425508
-0.0416631
-0.0408418
-0.03994
-0.0387876
-0.0370563
-0.0345471
-0.0311878
-0.0270076
-0.0220434
-0.0163478
-0.00986186
-0.00263709
0.00512829
0.0129133
0.019978
0.0254435
0.0286923
0.0296731
0.0290202
0.028022
0.028108
0.0305191
0.0357452
0.0432677
0.0518425
0.0598493
0.0658205
0.0688944
0.0689423
0.0665558
0.0625134
0.0578028
0.0532683
0.0495918
0.0473912
0.0471651
0.0491438
0.0529559
0.0574945
0.0611038
0.0618437
0.0581377
0.0492124
0.0354576
0.0183172
-5.87631e-5
-0.0174122
-0.0320061
-0.0429928
-0.0502288
-0.0542587
-0.0559638
-0.0562779
-0.0560271
-0.0558904
-0.0563327
-0.0574744
-0.0592977
-0.0615917
-0.0639813
-0.0661615
-0.0678353
-0.0689726
-0.0695392
-0.0694115
-0.0683227
-0.0660266
-0.0624066
-0.0576591
-0.0525662
-0.0484924
-0.0472
-0.0506974
-0.0606229
-0.0779938
-0.102973
-0.134541
-0.169959
-0.204589
-0.231766
-0.242826
-0.227572
-0.17571
-0.0793919
0.063729
0.247206
0.453918
0.656564
0.822079
0.918943
0.925722
0.837868
0.670326
0.454157
0.228281
0.0290698
-0.118585
-0.205767
-0.238527
-0.232696
-0.207047
-0.177207
-0.152572
-0.136446
-0.12789
-0.124358
-0.123451
-0.123927
-0.125519
-0.12817
-0.131511
-0.134819
-0.137251
-0.138029
-0.136899
-0.134157
-0.13065
-0.127312
-0.12492
-0.123847
-0.124023
-0.124922
-0.125791
-0.125962
-0.124811
-0.12216
-0.118079
-0.113074
-0.107845
-0.103087
-0.0993726
-0.0969523
-0.0957343
-0.095364
-0.0953756
-0.0953858
-0.095209
-0.0949188
-0.0946947
-0.0947107
-0.0949676
-0.0953511
-0.0955927
-0.0954522
-0.094852
-0.0938317
-0.0924358
-0.0907448
-0.0887272
-0.086306
-0.0834847
-0.0804345
-0.0775107
-0.0752329
-0.0739865
-0.073865
-0.0746322
-0.0757428
-0.0764946
-0.0764135
-0.0752878
-0.0733851
-0.0713335
-0.0697083
-0.0689037
-0.0689306
-0.0695573
-0.0703706
-0.0710708
-0.0717025
-0.0724431
-0.073617
-0.0754055
-0.0777492
-0.0803542
-0.0828835
-0.0850247
-0.0865983
-0.0875452
-0.0876952
-0.0868427
-0.0847131
-0.0811088
-0.0758829
-0.0693228
-0.0618217
-0.0540241
-0.0465426
-0.0398757
-0.0344852
-0.03067
-0.0286893
-0.0285632
-0.030105
-0.032698
-0.0354095
-0.037199
-0.0370875
-0.0345246
-0.0294675
-0.0223205
-0.0136487
-0.00401102
0.00627082
0.0170094
0.0280336
0.0391031
0.0497568
0.0594733
0.0676571
0.0740449
0.0786187
0.0817344
0.0839537
0.0857571
0.0875088
0.0892282
0.090654
0.0914325
0.0913268
0.09021
0.0882953
0.0858711
0.0831624
0.0802797
0.0772819
0.0741902
0.0712485
0.068879
0.0676228
0.0679396
0.0699019
0.073121
0.0768275
0.0800102
0.0818225
0.0817123
0.0796339
0.0758748
0.0710323
0.0658947
0.0611207
0.0572785
0.0546965
0.0533852
0.0531163
0.0535429
0.0542232
0.054826
0.0552384
0.0553606
0.0550701
0.0542102
0.0525309
0.0498327
0.0460924
0.0414748
0.0363945
0.0312164
0.0261724
0.0214062
0.016877
0.0126243
0.00871887
0.00548521
0.00319027
0.00197953
0.00184146
0.00243594
0.00335881
0.00425591
0.00483842
0.00507273
0.00507507
0.00498613
0.00487346
0.00472785
0.00456273
0.00435605
0.00412397
0.0039229
0.00374231
0.00357361
0.00333479
0.0029761
0.00247893
0.00177691
0.000773197
-0.000766886
-0.00298845
-0.00603459
-0.00974192
-0.0136845
-0.0172874
-0.0198891
-0.021249
-0.0215649
-0.0212569
-0.0209121
-0.0209746
-0.0215097
-0.0223064
-0.02295
-0.0231054
-0.0225997
-0.0214355
-0.0197304
-0.0174065
-0.0142228
-0.00982569
-0.00389035
0.00359054
0.0121807
0.0210833
0.0294185
0.0364398
0.0419502
0.0462595
0.0501055
0.0542951
0.0593473
0.0652219
0.0713614
0.0767591
0.0805003
0.082008
0.0812037
0.0784834
0.0745317
0.0700869
0.0656178
0.0614055
0.0578791
0.0553679
0.0542928
0.0547396
0.0562433
0.0577535
0.0578479
0.0551516
0.0489639
0.0395363
0.0279486
0.0158445
0.00471255
-0.00447033
-0.0117486
-0.0176863
-0.0232033
-0.0289285
-0.0350472
-0.0411972
-0.0466022
-0.0504899
-0.0523901
-0.0523955
-0.0510873
-0.0492223
-0.0476355
-0.0467326
-0.0465821
-0.0468514
-0.0470505
-0.0467015
-0.045519
-0.043519
-0.0410856
-0.0387799
-0.0371953
-0.0370963
-0.0391972
-0.0445246
-0.0541415
-0.0691737
-0.0902304
-0.117079
-0.147804
-0.178211
-0.202055
-0.211125
-0.195859
-0.146442
-0.0546868
0.0831728
0.263392
0.471957
0.683748
0.865493
0.982459
1.00797
0.931807
0.765038
0.538176
0.293115
0.0715158
-0.0960232
-0.196729
-0.235445
-0.229389
-0.200077
-0.166134
-0.138955
-0.122396
-0.115223
-0.113823
-0.114665
-0.115441
-0.115361
-0.114441
-0.112999
-0.11125
-0.10937
-0.10748
-0.105692
-0.104001
-0.102545
-0.10134
-0.100413
-0.0996508
-0.0987822
-0.0974343
-0.0953702
-0.0924161
-0.0887912
-0.0849891
-0.0816896
-0.0795456
-0.0788658
-0.0795715
-0.0811511
-0.0829532
-0.0843085
-0.0848336
-0.0844295
-0.0832649
-0.0815047
-0.0793676
-0.0769938
-0.0744463
-0.0717865
-0.0690929
-0.0665078
-0.0641243
-0.0619464
-0.0599015
-0.057926
-0.0559265
-0.0538914
-0.0519353
-0.0501786
-0.048717
-0.0476119
-0.0468374
-0.0462604
-0.045879
-0.0456278
-0.0455124
-0.045608
-0.0459389
-0.0464578
-0.047101
-0.0478795
-0.048788
-0.0498598
-0.05112
-0.0525599
-0.0541493
-0.05583
-0.0576587
-0.0597778
-0.0623658
-0.0654977
-0.0691533
-0.0731677
-0.0772472
-0.0810601
-0.0843661
-0.0870074
-0.0888561
-0.0898255
-0.0895773
-0.0877644
-0.0840014
-0.0780066
-0.0698857
-0.0601933
-0.0498439
-0.0397946
-0.0308021
-0.0230512
-0.0162143
-0.00958434
-0.00239653
0.00583712
0.0151747
0.0252711
0.0355406
0.0455318
0.0548255
0.0632871
0.0709101
0.0777706
0.0839956
0.0896734
0.094914
0.0998479
0.10448
0.108808
0.112702
0.115926
0.118198
0.119222
0.118992
0.117631
0.115611
0.113458
0.111792
0.110959
0.111005
0.111547
0.111979
0.1117
0.110375
0.107914
0.1046
0.100916
0.0973034
0.0941224
0.0915167
0.0894315
0.0877917
0.0863815
0.0851206
0.0838873
0.08257
0.0811062
0.079503
0.0778867
0.07629
0.0748676
0.0736032
0.0724725
0.0712939
0.0699892
0.0684519
0.0667871
0.0651149
0.0635771
0.0623051
0.0613527
0.0606424
0.0599709
0.0591464
0.0579468
0.0562405
0.054069
0.0514792
0.048725
0.0460154
0.0435558
0.0414305
0.039603
0.0379354
0.0362638
0.0344157
0.0323396
0.0300085
0.0275747
0.0252879
0.0233608
0.0220272
0.0212812
0.0210243
0.0210921
0.0212524
0.021262
0.0210462
0.0205831
0.0199113
0.019111
0.0181666
0.0169862
0.0154962
0.0136999
0.0116898
0.00966574
0.00791099
0.00659544
0.00576216
0.0052687
0.00495946
0.00455573
0.00410756
0.00365091
0.0034345
0.00375269
0.00475597
0.00643182
0.00859657
0.0108716
0.0129073
0.0145162
0.0157744
0.0170793
0.0190624
0.0223401
0.0272327
0.0336386
0.0411136
0.0488397
0.0561758
0.0625648
0.0679472
0.0724952
0.0765335
0.0803604
0.084046
0.0875581
0.0906678
0.0932306
0.0951178
0.0962304
0.096567
0.0961736
0.0950115
0.0930911
0.0904282
0.0872619
0.083903
0.0808483
0.0786848
0.0779412
0.0788141
0.0809135
0.0830471
0.0835603
0.0806449
0.073176
0.0607662
0.0443983
0.0259471
0.00758169
-0.00869101
-0.0215633
-0.0305862
-0.0360342
-0.0386205
-0.0391056
-0.038266
-0.0367275
-0.0350395
-0.0335471
-0.0325134
-0.0321735
-0.0326009
-0.0339185
-0.0360169
-0.0385733
-0.041085
-0.0430262
-0.0439553
-0.04384
-0.0434136
-0.0442929
-0.0485806
-0.0584829
-0.0757828
-0.100906
-0.13252
-0.166835
-0.197796
-0.217441
-0.216294
-0.18411
-0.111395
0.00815169
0.174326
0.37708
0.594577
0.794587
0.940225
0.999612
0.955756
0.813389
0.59926
0.355227
0.126065
-0.0530881
-0.16508
-0.212354
-0.211796
-0.186225
-0.155715
-0.132624
-0.120704
-0.117923
-0.120064
-0.123387
-0.125856
-0.127094
-0.127441
-0.127372
-0.126982
-0.126224
-0.125079
-0.123659
-0.122163
-0.120833
-0.119848
-0.119328
-0.119317
-0.119682
-0.120174
-0.120483
-0.120291
-0.119289
-0.11738
-0.114577
-0.111105
-0.107224
-0.10315
-0.0990711
-0.095051
-0.0911069
-0.087263
-0.0836683
-0.0805573
-0.078112
-0.0765396
-0.075817
-0.0758103
-0.0762145
-0.0766826
-0.0768685
-0.0765643
-0.0757077
-0.0742619
-0.0724126
-0.0704223
-0.0685197
-0.0669711
-0.0659005
-0.0653049
-0.0650239
-0.064788
-0.0643015
-0.0633887
-0.0620534
-0.0604608
-0.0589207
-0.0578023
-0.0573007
-0.057492
-0.058275
-0.0593601
-0.0605218
-0.0615602
-0.0624089
-0.0631263
-0.063882
-0.0648669
-0.0662278
-0.06808
-0.0703141
-0.0727175
-0.0749584
-0.0766339
-0.0775019
-0.077387
-0.076372
-0.0745235
-0.0719608
-0.0686206
-0.0642966
-0.0587147
-0.0517117
-0.0433407
-0.033949
-0.0241244
-0.014532
-0.00580323
0.00160833
0.00752781
0.0121574
0.0158547
0.0191246
0.0224763
0.026371
0.0311614
0.0369386
0.0436469
0.0509602
0.0583703
0.0653512
0.071389
0.0762145
0.0797578
0.0821676
0.0837504
0.0847841
0.0854281
0.0858577
0.0861112
0.086171
0.0860913
0.0858031
0.0852382
0.0842474
0.0827926
0.0807354
0.0781896
0.0752965
0.0722707
0.0693871
0.0667753
0.0644284
0.0622703
0.0601951
0.0580704
0.0558993
0.0537997
0.0518286
0.050099
0.0486671
0.047502
0.0465705
0.0459024
0.0454188
0.045107
0.0449105
0.0446338
0.0440886
0.0430384
0.0413359
0.0389072
0.0359289
0.0325669
0.0291264
0.0258569
0.0228684
0.0202197
0.0178599
0.0157027
0.0137516
0.0121219
0.010869
0.00995525
0.00933587
0.00877621
0.00803858
0.00692148
0.00532967
0.00330556
0.00104988
-0.00129907
-0.00357957
-0.00557782
-0.0071943
-0.00826528
-0.00866692
-0.00829216
-0.00713476
-0.00533628
-0.00326846
-0.0013079
5.64712e-5
0.000415388
-0.000366087
-0.00213856
-0.00456599
-0.00720784
-0.00952588
-0.0111088
-0.0116803
-0.0111602
-0.00972056
-0.00777825
-0.00578693
-0.00428885
-0.00377277
-0.00433734
-0.00581994
-0.00786009
-0.00990639
-0.0115305
-0.0123915
-0.0123747
-0.0115756
-0.0101005
-0.00807238
-0.00554169
-0.00236656
0.00169205
0.00686811
0.0132329
0.0206703
0.0287785
0.0369984
0.04483
0.0519303
0.058266
0.064119
0.069893
0.0758053
0.0817053
0.0871201
0.091339
0.0937287
0.0939002
0.0918987
0.0881208
0.0832736
0.0781208
0.073442
0.0698949
0.0680486
0.0681026
0.0695734
0.0713606
0.0718262
0.0692931
0.0624882
0.0512447
0.0363642
0.0196244
0.00309217
-0.0113609
-0.0225799
-0.03021
-0.034738
-0.0370149
-0.0379535
-0.0385312
-0.0393888
-0.0408369
-0.0429066
-0.0452995
-0.0476813
-0.0497416
-0.0512504
-0.0522066
-0.052727
-0.0529269
-0.0527952
-0.052251
-0.0512701
-0.049871
-0.0483259
-0.0474081
-0.0483703
-0.0529936
-0.0630804
-0.0803714
-0.105855
-0.138964
-0.17668
-0.213091
-0.239086
-0.242621
-0.210475
-0.131111
0.0011547
0.181891
0.393705
0.606776
0.783544
0.887824
0.895234
0.801392
0.62461
0.401157
0.174998
-0.0149792
-0.144877
-0.209992
-0.221923
-0.201306
-0.169412
-0.141488
-0.124473
-0.118298
-0.119274
-0.123132
-0.126869
-0.129224
-0.130149
-0.13009
-0.129409
-0.12825
-0.126726
-0.124996
-0.123273
-0.121796
-0.120761
-0.120172
-0.119877
-0.119489
-0.11853
-0.116566
-0.113442
-0.109227
-0.104461
-0.0999185
-0.0963126
-0.0940976
-0.093198
-0.0932313
-0.0934989
-0.0933802
-0.0926084
-0.0912318
-0.0896324
-0.0881247
-0.0870405
-0.0864714
-0.0862628
-0.0862155
-0.0861698
-0.0861421
-0.0862362
-0.0864376
-0.0866917
-0.0867384
-0.0862787
-0.085018
-0.0829407
-0.0802398
-0.0773752
-0.0748278
-0.0728948
-0.0716585
-0.0709644
-0.0704791
-0.0699212
-0.0691165
-0.068055
-0.0668488
-0.0656646
-0.0646695
-0.0639522
-0.0634954
-0.0631489
-0.0627517
-0.0622361
-0.0615221
-0.0606861
-0.0600092
-0.0597365
-0.0601426
-0.0612774
-0.0631242
-0.0654171
-0.0679832
-0.0705894
-0.0730976
-0.0754016
-0.0773331
-0.0785999
-0.0786953
-0.0770996
-0.0733666
-0.0673641
-0.0594058
-0.0501654
-0.0406367
-0.0315877
-0.0235356
-0.016579
-0.0103511
-0.00430854
0.0020061
0.00886124
0.0161219
0.0233771
0.0301124
0.0359075
0.0406111
0.0443412
0.0475042
0.0504867
0.0535954
0.0568734
0.0600771
0.0629168
0.0650394
0.066265
0.0666148
0.0663068
0.0655469
0.0646401
0.0636797
0.0625785
0.0611613
0.0591572
0.0563166
0.0526398
0.0484194
0.044117
0.0403454
0.0376007
0.0360747
0.0355389
0.0354817
0.035302
0.034473
0.032912
0.0307769
0.0285263
0.026649
0.0253618
0.0246871
0.0244082
0.0241272
0.0234647
0.0222574
0.0203684
0.0179627
0.0151934
0.0122515
0.00932369
0.00651519
0.00383939
0.00118454
-0.00148267
-0.00417434
-0.00674493
-0.00900211
-0.0107205
-0.0118644
-0.0125906
-0.0132161
-0.0141662
-0.0156302
-0.0176888
-0.0200081
-0.0220761
-0.0234278
-0.0237991
-0.023221
-0.0219611
-0.0204579
-0.0191094
-0.0181729
-0.0177276
-0.0176984
-0.0180052
-0.0185445
-0.0193752
-0.0204836
-0.0218851
-0.0234435
-0.0250522
-0.0264945
-0.0276765
-0.0285926
-0.0293831
-0.0302822
-0.0314336
-0.0328934
-0.0344684
-0.0358361
-0.0365821
-0.0364072
-0.0352999
-0.0335083
-0.0314584
-0.029529
-0.0277998
-0.0260918
-0.0239565
-0.0208728
-0.0165121
-0.0109636
-0.00452574
0.00224747
0.00885581
0.0150684
0.0210251
0.0270504
0.0335333
0.0407115
0.04838
0.0560218
0.062732
0.0675453
0.0698041
0.0693902
0.0666931
0.0626421
0.058277
0.0544516
0.0515255
0.0492971
0.0472305
0.0448088
0.0419582
0.0390831
0.0371201
0.0370603
0.0392821
0.0432944
0.0476987
0.0505056
0.0498179
0.0443987
0.0340913
0.0197103
0.00295989
-0.0143339
-0.0304784
-0.0442715
-0.0551217
-0.063017
-0.0681189
-0.0708772
-0.0717262
-0.0711519
-0.0696921
-0.0678839
-0.0663162
-0.0654733
-0.0655931
-0.066636
-0.0682796
-0.0700047
-0.0712279
-0.071504
-0.0706222
-0.068664
-0.0661138
-0.0638399
-0.063286
-0.0661045
-0.0741588
-0.0888695
-0.110925
-0.139588
-0.172077
-0.203125
-0.225244
-0.2292
-0.205232
-0.144472
-0.0409525
0.106391
0.292178
0.503438
0.719683
0.914653
1.05984
1.12983
1.10845
0.994069
0.801618
0.560428
0.307711
0.0797738
-0.0964071
-0.208671
-0.260131
-0.265557
-0.24469
-0.215754
-0.191134
-0.176242
-0.170825
-0.171423
-0.173972
-0.175608
-0.174937
-0.171961
-0.1675
-0.162534
-0.158014
-0.15451
-0.152319
-0.151421
-0.151583
-0.152607
-0.154148
-0.155876
-0.157412
-0.158446
-0.158783
-0.158367
-0.157368
-0.155933
-0.154216
-0.152246
-0.150033
-0.147532
-0.144702
-0.141666
-0.138522
-0.135189
-0.131648
-0.12774
-0.12338
-0.118827
-0.114427
-0.11073
-0.108217
-0.107231
-0.107773
-0.109551
-0.112072
-0.11469
-0.116879
-0.118422
-0.119349
-0.120018
-0.120803
-0.121899
-0.123205
-0.124344
-0.12478
-0.124126
-0.122202
-0.119052
-0.115087
-0.110771
-0.106517
-0.102795
-0.100041
-0.0985498
-0.0986361
-0.100363
-0.103506
-0.107493
-0.111706
-0.115502
-0.11854
-0.120829
-0.122748
-0.124862
-0.127795
-0.131832
-0.136883
-0.14241
-0.147476
-0.151026
-0.152079
-0.149954
-0.144432
-0.13581
-0.124665
-0.111861
-0.0982621
-0.0846523
-0.0716424
-0.0596577
-0.0489057
-0.039218
-0.030191
-0.0212548
-0.0118532
-0.00167537
0.00935028
0.0208307
0.0321334
0.0426862
0.0519131
0.0594326
0.0651859
0.0692585
0.0719578
0.0737078
0.0749321
0.0761833
0.0778109
0.0799266
0.0824277
0.0849657
0.0870152
0.0881942
0.0882712
0.0872269
0.0853827
0.0831397
0.0808964
0.0790068
0.0776088
0.0766998
0.0760709
0.0754513
0.0746276
0.0733682
0.0715709
0.0693717
0.0669386
0.0645677
0.0624864
0.0608416
0.0596983
0.058922
0.0584638
0.0582148
0.0580805
0.0580554
0.0581063
0.0582474
0.0583998
0.0584634
0.0581879
0.0572241
0.0552225
0.0519325
0.0474362
0.042097
0.0366171
0.0318277
0.0283765
0.0264773
0.0258709
0.0258638
0.0255834
0.0244286
0.0221126
0.0189133
0.015458
0.0125276
0.0106607
0.0101478
0.0109104
0.0125334
0.0145938
0.016562
0.0180756
0.0188456
0.018716
0.0176366
0.0157563
0.0133049
0.010528
0.00775138
0.00524051
0.0031186
0.00155144
0.000587235
0.000271443
0.000589517
0.00141475
0.00253127
0.00374961
0.0047844
0.00543837
0.0055612
0.00511492
0.00412715
0.0027601
0.00131231
0.000117989
-0.0004154
2.65157e-5
0.00169984
0.0046984
0.00901286
0.0144684
0.0207577
0.0274918
0.0342316
0.0405496
0.0462609
0.0512347
0.0556568
0.0598835
0.0641974
0.0689117
0.0740632
0.0794523
0.0847032
0.0892803
0.0926425
0.0944798
0.0947249
0.0935214
0.0911762
0.0879754
0.0841395
0.0798563
0.0754214
0.0713959
0.0685915
0.0679525
0.0701995
0.0753169
0.0822409
0.089067
0.0934627
0.0934243
0.0878189
0.0767637
0.0614804
0.0438048
0.02574
0.00884373
-0.0058325
-0.0178002
-0.0268758
-0.0332273
-0.0371784
-0.0392348
-0.0400055
-0.0400723
-0.0398072
-0.0393472
-0.0386932
-0.0378839
-0.0370017
-0.0362496
-0.035943
-0.0361236
-0.0365205
-0.0366232
-0.0360107
-0.0344091
-0.0320791
-0.0300176
-0.0299154
-0.0338201
-0.0437544
-0.0610737
-0.0861435
-0.11768
-0.152423
-0.184832
-0.207456
-0.211481
-0.18761
-0.127328
-0.0245452
0.122463
0.308895
0.522171
0.741554
0.94
1.08822
1.16031
1.14022
1.02652
0.834315
0.592535
0.337606
0.105113
-0.0780456
-0.198612
-0.257932
-0.268811
-0.249674
-0.218698
-0.189303
-0.168492
-0.157549
-0.154096
-0.15469
-0.156504
-0.157961
-0.158649
-0.158701
-0.158326
-0.157559
-0.156392
-0.154806
-0.152858
-0.150675
-0.148435
-0.14614
-0.143836
-0.14142
-0.138862
-0.136137
-0.133402
-0.130845
-0.128585
-0.126855
-0.125621
-0.124746
-0.124102
-0.123429
-0.122649
-0.121658
-0.120392
-0.118895
-0.117205
-0.115379
-0.11345
-0.111467
-0.10944
-0.107296
-0.104914
-0.102171
-0.0990241
-0.0957542
-0.0926636
-0.0902812
-0.0890138
-0.0889984
-0.0900893
-0.0918295
-0.0936767
-0.0950696
-0.0957849
-0.0959035
-0.0955921
-0.0952109
-0.0948873
-0.0946627
-0.0944317
-0.0941075
-0.0936736
-0.0931741
-0.092671
-0.0921282
-0.0914269
-0.090408
-0.0889747
-0.0872499
-0.085503
-0.0841579
-0.0836715
-0.0842673
-0.0860981
-0.0890432
-0.0928158
-0.0970732
-0.101414
-0.105425
-0.10856
-0.110208
-0.1098
-0.106788
-0.100859
-0.0919683
-0.0804447
-0.0669197
-0.0522326
-0.0373146
-0.0229371
-0.00974473
0.0019919
0.0122849
0.0214795
0.030146
0.0388043
0.0478968
0.0575459
0.0674352
0.0771004
0.0858384
0.0931195
0.098548
0.102026
0.10373
0.104022
0.103255
0.101769
0.0998382
0.0975816
0.095132
0.0926789
0.0904498
0.0886245
0.0874722
0.0869282
0.0868432
0.0868518
0.0865473
0.0856591
0.0841749
0.0823573
0.0807335
0.0797839
0.0797432
0.0804459
0.0814289
0.0819337
0.0814676
0.0797862
0.0771476
0.0740497
0.0711435
0.0688071
0.067021
0.0655503
0.0638847
0.0615633
0.0584618
0.054752
0.050769
0.0469854
0.0436739
0.0409369
0.0386333
0.0365926
0.0345691
0.0326108
0.030756
0.0291186
0.0277573
0.0265909
0.0253483
0.0238812
0.0220356
0.0199478
0.0177633
0.0156812
0.0137398
0.0118738
0.00988402
0.0074935
0.00472868
0.0017529
-0.00108619
-0.00337899
-0.00482665
-0.00538613
-0.00524467
-0.00485148
-0.00457837
