-0.0594822
-0.0563579
-0.0523006
-0.0480424
-0.0445163
-0.0427474
-0.0439128
-0.0491518
-0.0596585
-0.0763391
-0.0994109
-0.12801
-0.159652
-0.18986
-0.212316
-0.219618
-0.204275
-0.159856
-0.0818402
0.0316495
0.179481
0.357006
0.555682
0.762351
0.958955
1.1231
1.23028
1.25877
1.19558
1.04184
0.815287
0.547815
0.278715
0.0450804
-0.127231
-0.228885
-0.26711
-0.260553
-0.231616
-0.199351
-0.175405
-0.163526
-0.161732
-0.165633
-0.171062
-0.175425
-0.177797
-0.17836
-0.17771
-0.176406
-0.174924
-0.173556
-0.172434
-0.171484
-0.170587
-0.169549
-0.168336
-0.166987
-0.165663
-0.164537
-0.163662
-0.162991
-0.162362
-0.161624
-0.160675
-0.15946
-0.158072
-0.156521
-0.154808
-0.152848
-0.150595
-0.148106
-0.145521
-0.143096
-0.14104
-0.139549
-0.138545
-0.137868
-0.137222
-0.136363
-0.135106
-0.133407
-0.131251
-0.128715
-0.125852
-0.122811
-0.11985
-0.11726
-0.115388
-0.114374
-0.114069
-0.11419
-0.114408
-0.114533
-0.114618
-0.11495
-0.115782
-0.117127
-0.118721
-0.119978
-0.12042
-0.119743
-0.118079
-0.115915
-0.113905
-0.112675
-0.112507
-0.113424
-0.115212
-0.117475
-0.119924
-0.122276
-0.124285
-0.125832
-0.126596
-0.126303
-0.124689
-0.121559
-0.116602
-0.109614
-0.100415
-0.0887939
-0.0747356
-0.0584341
-0.040489
-0.0218969
-0.00381611
0.0126158
0.0265016
0.0373904
0.0452967
0.0505967
0.0537539
0.0553472
0.0558588
0.0556662
0.0552102
0.0549407
0.0552427
0.0566251
0.0591826
0.0628226
0.0669788
0.070918
0.0738065
0.0751271
0.0747261
0.0728775
0.0701353
0.0671504
0.0644514
0.0623252
0.0607139
0.0593767
0.0581036
0.0567038
0.0551365
0.053446
0.0517047
0.0500299
0.0484913
0.0470818
0.0457281
0.0442658
0.0426267
0.0406247
0.0383554
0.0358502
0.0334131
0.0313068
0.0297385
0.0287
0.0279464
0.0269505
0.0251245
0.0219234
0.0170943
0.0107693
0.00351509
-0.00394879
-0.0108686
-0.01671
-0.0212635
-0.0245266
-0.0265636
-0.0275189
-0.0274356
-0.0262932
-0.0243329
-0.0219958
-0.020013
-0.0190679
-0.0196173
-0.0216069
-0.024608
-0.0279082
-0.0308209
-0.0328731
-0.0339354
-0.0340745
-0.0335853
-0.0327249
-0.0317162
-0.0308123
-0.0303521
-0.0306114
-0.0319755
-0.0344258
-0.0376156
-0.0407423
-0.0427853
-0.0426985
-0.0397956
-0.0339738
-0.0257268
-0.0161351
-0.00626417
0.00297478
0.0111754
0.0184716
0.0253649
0.0323556
0.0397608
0.0473102
0.0542397
0.0594566
0.0620396
0.06155
0.0583566
0.0535708
0.048605
0.0446305
0.0422911
0.0413615
0.0410555
0.0405068
0.0391899
0.0371539
0.0348862
0.0326996
0.0306135
0.0281385
0.0244136
0.0187292
0.0108575
0.00123527
-0.00912303
-0.0190154
-0.0276508
-0.0347822
-0.0406463
-0.0458479
-0.0509606
-0.0562594
-0.0616741
-0.0669015
-0.0714636
-0.0750742
-0.0776521
-0.0794029
-0.0806893
-0.0819614
-0.083534
-0.0855834
-0.088046
-0.0905041
-0.0924815
-0.0934544
-0.0930524
-0.0913473
-0.088992
-0.0874352
-0.0887009
-0.095029
-0.108233
-0.129146
-0.156871
-0.18807
-0.216629
-0.233388
-0.226571
-0.183064
-0.0913624
0.0543187
0.249416
0.475715
0.701568
0.886951
0.993181
0.99426
0.885786
0.687715
0.439415
0.188358
-0.0234291
-0.170115
-0.246317
-0.264025
-0.244946
-0.211439
-0.18002
-0.158727
-0.148473
-0.146157
-0.147631
-0.149713
-0.150699
-0.150303
-0.149122
-0.148024
-0.1479
-0.149217
-0.151704
-0.154379
-0.15606
-0.155731
-0.15331
-0.149576
-0.145957
-0.143848
-0.144093
-0.146437
-0.149778
-0.152531
-0.153189
-0.150879
-0.145643
-0.138352
-0.1304
-0.123295
-0.118275
-0.115877
-0.115979
-0.117834
-0.120392
-0.12276
-0.124386
-0.125155
-0.125465
-0.125714
-0.126156
-0.126767
-0.12715
-0.126828
-0.125406
-0.122745
-0.118989
-0.114547
-0.109838
-0.105232
-0.101067
-0.0975432
-0.0947742
-0.0927632
-0.0914554
-0.0906755
-0.0902912
-0.0901862
-0.0903544
-0.0908837
-0.091838
-0.0931713
-0.0947473
-0.0964566
-0.0981668
-0.0999616
-0.101963
-0.104393
-0.107475
-0.111203
-0.115356
-0.119494
-0.122977
-0.125217
-0.125773
-0.124625
-0.122077
-0.118846
-0.115677
-0.113182
-0.111532
-0.110422
-0.109064
-0.106531
-0.101943
-0.0947724
-0.0850253
-0.0732229
-0.0601825
-0.0468914
-0.0341805
-0.0226069
-0.0123811
-0.00347576
0.00443831
0.0117735
0.0190168
0.0265992
0.0348227
0.0438458
0.0533645
0.0627817
0.0712439
0.0778808
0.0820719
0.0836942
0.0831219
0.0810856
0.0784405
0.0758954
0.073805
0.072281
0.071194
0.0704186
0.0698074
0.0692525
0.06877
0.0684012
0.068187
0.068311
0.0690801
0.0707599
0.0734916
0.0772565
0.0817164
0.0863348
0.0906215
0.0940793
0.0961933
0.0966382
0.0951478
0.091573
0.0861222
0.0791795
0.0714053
0.0635275
0.0562731
0.0501295
0.0453576
0.0420128
0.0400052
0.0391835
0.0392215
0.0397084
0.0401508
0.0400841
0.0390788
0.0370588
0.0342067
0.0308534
0.0274353
0.0243672
0.0218512
0.0200188
0.0190103
0.0190121
0.0201658
0.0225752
0.0259258
0.0296532
0.0328054
0.0345485
0.0343415
0.0322391
0.0288884
0.0252278
0.0220785
0.0198453
0.0183444
0.0170723
0.0154476
0.0132404
0.0107091
0.00843511
0.00710626
0.00724048
0.00900129
0.0121805
0.0164003
0.0213181
0.0267938
0.0329002
0.0397674
0.0474569
0.0558048
0.064324
0.0724905
0.0796806
0.0854227
0.0894833
0.0917812
0.0923787
0.0913819
0.088945
0.0852893
0.0807474
0.0758572
0.071105
0.0669974
0.0638762
0.0618588
0.0610875
0.061817
0.0642785
0.0685353
0.0741444
0.079889
0.084012
0.0847752
0.0808996
0.0722183
0.0596417
0.0447897
0.0294405
0.0148916
0.00165316
-0.0102434
-0.0210275
-0.0307453
-0.0391055
-0.0455977
-0.0498648
-0.0518718
-0.0520257
-0.0512077
-0.0504774
-0.0506745
-0.0523364
-0.0553308
-0.0589796
-0.0623013
-0.0644579
-0.0648747
-0.0635951
-0.0610097
-0.0577091
-0.054398
-0.0514778
-0.0492495
-0.0481155
-0.0487652
-0.0523721
-0.0605584
-0.0748159
-0.096043
-0.123701
-0.155252
-0.186077
-0.210185
-0.220947
-0.212328
-0.17973
-0.119872
-0.0301197
0.091651
0.246283
0.431176
0.637399
0.847351
1.03461
1.16759
1.21702
1.16504
1.01226
0.780185
0.506693
0.236383
0.00869503
-0.151614
-0.238837
-0.264114
-0.248654
-0.215386
-0.18214
-0.158471
-0.146518
-0.143718
-0.145935
-0.149613
-0.152583
-0.154077
-0.154023
-0.152611
-0.150073
-0.146826
-0.143178
-0.139532
-0.13618
-0.133183
-0.130579
-0.12844
-0.126763
-0.1257
-0.125279
-0.125479
-0.12618
-0.127111
-0.127952
-0.128423
-0.128261
-0.127351
-0.125687
-0.123609
-0.12143
-0.119413
-0.117648
-0.1158
-0.113311
-0.109645
-0.104473
-0.0979907
-0.0909764
-0.084371
-0.0791202
-0.0759281
-0.0749213
-0.0757579
-0.0779592
-0.0809575
-0.0843257
-0.0877537
-0.0910138
-0.0939762
-0.0965334
-0.0985711
-0.100058
-0.101082
-0.101803
-0.102274
-0.102532
-0.102457
-0.101876
-0.100782
-0.0993179
-0.0977718
-0.0965446
-0.0958619
-0.0957491
-0.0959908
-0.0962731
-0.0962211
-0.0957856
-0.0952394
-0.095005
-0.095571
-0.0972946
-0.10031
-0.104373
-0.108969
-0.113378
-0.116872
-0.11869
-0.118125
-0.114643
-0.107908
-0.0978074
-0.084758
-0.0695683
-0.0533612
-0.037334
-0.0224219
-0.00905464
0.00278672
0.0134712
0.0234047
0.0327826
0.0414568
0.0491676
0.0557145
0.0611458
0.0658304
0.0702856
0.0750071
0.0801258
0.0854831
0.0906179
0.0950425
0.0982657
0.100118
0.100593
0.0999035
0.0982837
0.0960933
0.09363
0.0912099
0.089111
0.0875699
0.0867596
0.0867852
0.087626
0.0891956
0.0912345
0.0933207
0.0949325
0.0955321
0.0946882
0.0922286
0.0883312
0.0834697
0.078374
0.0737378
0.0700386
0.0675131
0.0660399
0.0652192
0.0646503
0.06394
0.0629675
0.0617044
0.0602987
0.0588049
0.0572145
0.0554815
0.0534854
0.0512462
0.0489797
0.0469067
0.045318
0.0442945
0.0436377
0.0430123
0.0420034
0.0402622
0.0376939
0.0344987
0.0310094
0.0276792
0.0248433
0.0225974
0.0208522
0.0193212
0.0176239
0.0155207
0.0128763
0.0097833
0.00642911
0.00309315
-4.49003e-5
-0.00279911
-0.00504052
-0.00666926
-0.00753988
-0.00746782
-0.00637656
-0.00433788
-0.00158382
0.00136558
0.00393389
0.00575454
0.00670074
0.00703476
0.00729735
0.0081307
0.0101171
0.0135286
0.0183833
0.0244699
0.0313312
0.0384744
0.0454127
0.051836
0.0576195
0.0629932
0.0684161
0.0743194
0.0808988
0.0879184
0.0947137
0.100344
0.104
0.105234
0.104224
0.101625
0.0982371
0.0946726
0.0912124
0.0878463
0.0846335
0.0819103
0.0803777
0.0809734
0.0842971
0.0900862
0.0970697
0.103081
0.105721
0.103155
0.0947252
0.0810625
0.0639758
0.0456595
0.0281913
0.0130611
0.00103068
-0.0078546
-0.014013
-0.0180784
-0.0207074
-0.0225633
-0.024161
-0.0258304
-0.0277627
-0.029927
-0.0322474
-0.034535
-0.036723
-0.0387503
-0.0405826
-0.0420548
-0.0428139
-0.0425036
-0.0407867
-0.037789
-0.034174
-0.0314913
-0.0319466
-0.0379662
-0.051548
-0.0735587
-0.103055
-0.136734
-0.169126
-0.193038
-0.201104
-0.187016
-0.146918
-0.0799516
0.0121014
0.126135
0.259204
0.409093
0.573921
0.75006
0.929406
1.09699
1.23086
1.30544
1.2981
1.19695
1.00702
0.751715
0.468321
0.198737
-0.021469
-0.171593
-0.24932
-0.268037
-0.249711
-0.216825
-0.185881
-0.165137
-0.155745
-0.154655
-0.157607
-0.161328
-0.163961
-0.164964
-0.164337
-0.162297
-0.159178
-0.155433
-0.15165
-0.148426
-0.146359
-0.145672
-0.146434
-0.148315
-0.150807
-0.153223
-0.154921
-0.155459
-0.154701
-0.152868
-0.150507
-0.148183
-0.146389
-0.145287
-0.144622
-0.14394
-0.142826
-0.140903
-0.138154
-0.13466
-0.130683
-0.126499
-0.122257
-0.118089
-0.114138
-0.110488
-0.107252
-0.104511
-0.102222
-0.100338
-0.0988333
-0.0977737
-0.0973377
-0.097823
-0.0993907
-0.101993
-0.105174
-0.108194
-0.11021
-0.110709
-0.109573
-0.107321
-0.104829
-0.103015
-0.102418
-0.103046
-0.104337
-0.105452
-0.105705
-0.104794
-0.102951
-0.100835
-0.0991468
-0.0984754
-0.0988945
-0.10016
-0.101719
-0.103023
-0.103685
-0.103598
-0.102859
-0.101574
-0.0997322
-0.0971405
-0.0934506
-0.0881523
-0.0808699
-0.07134
-0.059537
-0.045717
-0.0303989
-0.0142906
0.00174349
0.0168549
0.0303234
0.0417485
0.0510464
0.05847
0.064425
0.0694455
0.0739485
0.0781827
0.0822744
0.086218
0.0899907
0.0935917
0.0969988
0.100137
0.102895
0.105077
0.10652
0.107153
0.10702
0.106195
0.10481
0.102957
0.100621
0.0978686
0.094781
0.0915299
0.0884211
0.0855307
0.0829173
0.0804159
0.0778564
0.0751658
0.0723742
0.0697689
0.0676082
0.0661922
0.0654989
0.0652765
0.0651127
0.0646658
0.0636928
0.0622714
0.0606501
0.0590682
0.0576726
0.0564042
0.0549865
0.0531868
0.0509435
0.0483327
0.0457018
0.0433766
0.0415271
0.0401104
0.0387336
0.036856
0.0340335
0.0300083
0.0248554
0.0190042
0.0131405
0.00784709
0.00361277
0.000638765
-0.00115592
-0.00210361
-0.00255352
-0.00288974
-0.00331155
-0.00394502
-0.00476706
-0.00568679
-0.00652619
-0.00715491
-0.00739176
-0.00707377
-0.00615927
-0.00461723
-0.00261048
-0.000292027
0.00205445
0.00417538
0.00576507
0.00673241
0.00712623
0.00719121
0.00739778
0.00842586
0.0108463
0.0150667
0.0210677
0.0283929
0.0362148
0.0436238
0.0499097
0.0548951
0.0588817
0.0625779
0.0667915
0.072103
0.078614
0.0858628
0.0929103
0.098594
0.101903
0.102198
0.0994988
0.0944327
0.0880461
0.0813601
0.0753416
0.070624
0.0676074
0.0664565
0.0672944
0.0698362
0.0733959
0.0765915
0.0777183
0.0752329
0.0681453
0.0565205
0.041459
0.0247395
0.00819892
-0.00670466
-0.0192408
-0.029283
-0.0370195
-0.042664
-0.0463367
-0.048095
-0.0481056
-0.0467051
-0.0443093
-0.0414154
-0.0385395
-0.0361197
-0.0344422
-0.0337168
-0.0340356
-0.0354596
-0.0379636
-0.041341
-0.0453093
-0.0495843
-0.0537812
-0.0575142
-0.0603503
-0.0619422
-0.0621
-0.060946
-0.0590817
-0.057761
-0.05862
-0.0636227
-0.0744584
-0.0922147
-0.116796
-0.14647
-0.177439
-0.203688
-0.217353
-0.209174
-0.169289
-0.0888113
0.0375969
0.208954
0.414923
0.634381
0.836829
0.987443
1.05521
1.02202
0.889177
0.678925
0.429386
0.184147
-0.0192104
-0.158227
-0.229127
-0.243901
-0.223438
-0.189302
-0.157452
-0.135677
-0.124851
-0.121834
-0.122613
-0.124164
-0.125215
-0.125704
-0.126089
-0.126611
-0.127318
-0.127936
-0.128205
-0.127869
-0.126753
-0.124825
-0.122167
-0.118998
-0.11568
-0.112489
-0.109605
-0.107014
-0.104497
-0.101786
-0.0987252
-0.0953387
-0.0918159
-0.0885112
-0.0856447
-0.0833408
-0.0815035
-0.0799477
-0.0785157
-0.0772554
-0.0762064
-0.0755681
-0.0753785
-0.0756033
-0.076032
-0.0764446
-0.0766408
-0.0766021
-0.0763398
-0.0759234
-0.0753833
-0.074658
-0.0736858
-0.0724029
-0.0708591
-0.0691898
-0.0676095
-0.066346
-0.0655783
-0.0653067
-0.0653602
-0.0653832
-0.0649376
-0.0637004
-0.0615429
-0.0585702
-0.0552484
-0.0521093
-0.0497108
-0.0483468
-0.0480711
-0.0485871
-0.0495425
-0.0505323
-0.0513377
-0.051917
-0.052428
-0.05308
-0.0541114
-0.0556896
-0.0579039
-0.0606696
-0.0637543
-0.0666416
-0.0686439
-0.0688359
-0.0663221
-0.0604568
-0.0510086
-0.038374
-0.0235369
-0.00783332
0.00722057
0.0202618
0.0303663
0.0370939
0.0406766
0.0418728
0.0417293
0.0413407
0.0416102
0.0429596
0.0454329
0.0486682
0.0522088
0.0556008
0.0587172
0.0615259
0.064235
0.0669715
0.0698945
0.0729
0.07581
0.0783334
0.0801346
0.0810226
0.0809478
0.0800259
0.0786582
0.0772594
0.076293
0.0761073
0.0768276
0.0781954
0.0798528
0.0812967
0.0820452
0.0818024
0.080375
0.0777534
0.0739913
0.0692647
0.0638037
0.0580952
0.0526554
0.048053
0.0446342
0.0424377
0.0411278
0.0401768
0.0390147
0.0372191
0.0346783
0.0315233
0.0279818
0.0244185
0.0211609
0.0185013
0.016675
0.0159809
0.0164103
0.0177289
0.0193605
0.0204728
0.0202242
0.01809
0.0139632
0.00840465
0.00234172
-0.00323993
-0.00765402
-0.0106356
-0.0124574
-0.0135647
-0.0144483
-0.0153977
-0.016429
-0.0174779
-0.0183191
-0.0189102
-0.0193271
-0.0197605
-0.0204736
-0.0216376
-0.0233086
-0.0254928
-0.0279449
-0.0303354
-0.0322887
-0.0334899
-0.0337046
-0.0329374
-0.0312155
-0.0286697
-0.0252933
-0.0209978
-0.0156655
-0.00933847
-0.00229023
0.0049569
0.0117956
0.0177444
0.0226437
0.0269083
0.0310681
0.0358181
0.0415534
0.0483007
0.0555507
0.0624037
0.0678928
0.0711629
0.0716472
0.0691778
0.064087
0.0572637
0.0498974
0.0432834
0.0386124
0.0366767
0.0376142
0.0407492
0.0447513
0.0476774
0.0476765
0.0432897
0.034006
0.0203004
0.00357638
-0.0141936
-0.0309302
-0.0451967
-0.0562142
-0.0640974
-0.0695185
-0.0732892
-0.0761087
-0.078374
-0.0802205
-0.0816129
-0.0825957
-0.083482
-0.0847899
-0.0869785
-0.0902687
-0.0942762
-0.0982328
-0.101066
-0.101935
-0.100469
-0.0969943
-0.0924945
-0.088543
-0.0868907
-0.0893952
-0.0977995
-0.113363
-0.136442
-0.166194
-0.199846
-0.232229
-0.255794
-0.260934
-0.236567
-0.171828
-0.0587138
0.104548
0.310056
0.538139
0.758036
0.932656
1.02679
1.01707
0.89963
0.692972
0.433952
0.168145
-0.0622521
-0.228746
-0.321707
-0.349179
-0.330674
-0.289186
-0.244099
-0.207271
-0.182945
-0.169991
-0.164694
-0.163041
-0.162293
-0.161165
-0.159562
-0.157816
-0.156312
-0.155323
-0.154975
-0.15527
-0.156206
-0.157818
-0.159917
-0.162221
-0.164162
-0.164999
-0.164127
-0.161228
-0.15643
-0.150435
-0.144283
-0.138981
-0.135264
-0.133402
-0.133196
-0.133991
-0.135058
-0.135652
-0.135269
-0.133736
-0.13104
-0.127375
-0.123165
-0.11889
-0.115119
-0.112375
-0.110951
-0.110777
-0.111453
-0.112323
-0.112656
-0.11197
-0.110047
-0.107126
-0.10379
-0.10063
-0.0981579
-0.0966452
-0.0960474
-0.0961085
-0.0965089
-0.0969919
-0.097339
-0.0976099
-0.0979383
-0.0983921
-0.0989661
-0.0994745
-0.0995491
-0.0988825
-0.0972406
-0.0946959
-0.0916732
-0.0888076
-0.0868737
-0.086478
-0.0879001
-0.0909676
-0.0953209
-0.100379
-0.10567
-0.111043
-0.116451
-0.1219
-0.127188
-0.131719
-0.134475
-0.134166
-0.129687
-0.120574
-0.10723
-0.0909435
-0.0735731
-0.0571455
-0.0432661
-0.0328011
-0.0256331
-0.0209597
-0.0174757
-0.0136733
-0.00830751
-0.000739551
0.00899393
0.0200179
0.0311456
0.0410758
0.0489378
0.0546302
0.0586639
0.0618189
0.0646985
0.0674851
0.0698802
0.0713248
0.0712918
0.0697172
0.0669468
0.0635808
0.0603665
0.0577949
0.0560879
0.0552276
0.0547686
0.0542894
0.053369
0.0517255
0.0493695
0.0467857
0.044656
0.0438062
0.0447795
0.0475626
0.0516039
0.0558662
0.0592271
0.0608737
0.0604901
0.0583031
0.0549007
0.0509402
0.0469071
0.042961
0.0391109
0.0353733
0.0317896
0.0286021
0.0260777
0.024265
0.0230639
0.0219515
0.0203248
0.0174868
0.0131191
0.00733757
0.000934492
-0.00486556
-0.00879341
-0.00981287
-0.00775896
-0.00323005
0.00235672
0.00720917
0.00967892
0.00880917
0.00464133
-0.00179207
-0.0088546
-0.0148825
-0.018711
-0.0200682
-0.0195842
-0.0184047
-0.0177028
-0.0180843
-0.0194267
-0.0207946
-0.0210393
-0.0191453
-0.0147728
-0.00826028
-0.000380823
0.0078888
0.015934
0.0235295
0.0309673
0.0386407
0.0467874
0.055336
0.0638266
0.0716336
0.0781858
0.0829226
0.0855345
0.0858489
0.0838674
0.0798883
0.0746551
0.0691952
0.0645398
0.0613759
0.059677
0.0587301
0.0574732
0.0551429
0.0516708
0.0480101
0.0455388
0.0454308
0.0478399
0.0516508
0.0547911
0.0548684
0.050228
0.0403439
0.0260693
0.00919258
-0.00817102
-0.0239772
-0.0368439
-0.0460181
-0.0514081
-0.0534202
-0.0529565
-0.051179
-0.0493606
-0.0484785
-0.0490219
-0.0508761
-0.0534951
-0.0561716
-0.0581693
-0.0591677
-0.0591163
-0.0581732
-0.0566959
-0.0554216
-0.0556673
-0.059214
-0.0682396
-0.0847916
-0.109685
-0.141365
-0.174883
-0.201607
-0.209259
-0.183233
-0.109577
0.0207974
0.20731
0.435656
0.676645
0.889711
1.03189
1.06973
0.990351
0.806961
0.556325
0.288378
0.0516653
-0.119989
-0.214803
-0.241976
-0.224138
-0.187024
-0.150951
-0.12639
-0.114838
-0.112496
-0.114406
-0.116952
-0.118643
-0.119734
-0.120972
-0.122701
-0.124669
-0.126383
-0.127376
-0.127399
-0.126542
-0.125213
-0.123862
-0.122843
-0.12234
-0.122118
-0.121763
-0.12064
-0.118245
-0.114261
-0.108847
-0.102549
-0.0960749
-0.0902013
-0.0855294
-0.0824423
-0.0809631
-0.0808609
-0.0818468
-0.0835005
-0.0852849
-0.0867341
-0.0874459
-0.0871687
-0.0858063
-0.0835146
-0.0804689
-0.0768829
-0.0729756
-0.068919
-0.0648561
-0.060989
-0.0575549
-0.0547476
-0.0525789
-0.0508958
-0.0493484
-0.0474709
-0.0449187
-0.0416845
-0.0381104
-0.0347139
-0.0321922
-0.0309776
-0.0312059
-0.032618
-0.0348213
-0.0373444
-0.0398753
-0.0423623
-0.0448136
-0.0472581
-0.0496623
-0.0517569
-0.0533703
-0.0544193
-0.0550223
-0.0555942
-0.0567095
-0.0589547
-0.0626665
-0.0677617
-0.0736265
-0.0793039
-0.0836084
-0.0853469
-0.0835958
-0.0777549
-0.0676
-0.0533466
-0.0355233
-0.015111
0.00666445
0.0283611
0.0485879
0.0662271
0.0806531
0.0918533
0.100235
0.106498
0.11145
0.115689
0.119665
0.123412
0.126904
0.129864
0.132084
0.133274
0.133368
0.132389
0.130481
0.127809
0.124669
0.121253
0.117761
0.114362
0.111159
0.108362
0.106108
0.104457
0.103314
0.102493
0.10171
0.100738
0.0995774
0.0983236
0.0971298
0.0961779
0.0954394
0.094699
0.0937162
0.0921875
0.0899359
0.0869809
0.0833903
0.0793593
0.0750277
0.0705626
0.0660925
0.0616759
0.0573545
0.0531143
0.0490237
0.0451447
0.0416476
0.0387284
0.0365688
0.0352747
0.034752
0.0347579
0.0348996
0.0348047
0.0342353
0.0331034
0.0314983
0.0297099
0.0279202
0.0263833
0.0251225
0.0241755
0.0234771
0.0228977
0.0222817
0.021506
0.0204435
0.0190309
0.0173334
0.0154921
0.013757
0.0123117
0.0112769
0.0106801
0.0104835
0.0105839
0.0109422
0.0114277
0.0119663
0.0124202
0.0126795
0.0127911
0.0130337
0.0140195
0.0163672
0.02054
0.0268173
0.0347396
0.04351
0.0520694
0.0595722
0.0656266
0.0704638
0.0747178
0.0790557
0.0838303
0.0887783
0.0932145
0.0963466
0.0976275
0.0970529
0.0951603
0.0926611
0.0901006
0.0874648
0.0843761
0.0803806
0.0756395
0.0710732
0.0681702
0.0684034
0.072461
0.079324
0.0866044
0.0910127
0.0896131
0.0809043
0.0653522
0.0450908
0.0231922
0.00250159
-0.0150925
-0.0287807
-0.0387163
-0.0455677
-0.0500028
-0.0526796
-0.0541752
-0.0550171
-0.0557222
-0.0566315
-0.0578699
-0.0592671
-0.0605013
-0.0612184
-0.0611746
-0.0603453
-0.0590155
-0.0576519
-0.0568596
-0.0577195
-0.0616549
-0.0703588
-0.0853749
-0.107674
-0.13689
-0.170483
-0.202981
-0.226202
-0.229946
-0.20352
-0.137731
-0.0269071
0.129665
0.326439
0.551424
0.786355
1.00749
1.18761
1.29934
1.32044
1.23989
1.06293
0.812523
0.525676
0.245026
0.00857124
-0.159369
-0.25268
-0.282093
-0.268815
-0.23622
-0.202843
-0.179017
-0.167275
-0.165153
-0.168474
-0.173754
-0.178908
-0.183176
-0.186438
-0.188695
-0.189897
-0.18997
-0.189055
-0.187402
-0.185451
-0.183629
-0.182314
-0.181651
-0.181622
-0.182002
-0.182325
-0.182082
-0.180857
-0.178345
-0.17459
-0.169891
-0.164565
-0.159163
-0.154112
-0.149718
-0.146328
-0.144111
-0.143175
-0.143524
-0.144969
-0.147022
-0.149075
-0.15049
-0.150751
-0.14977
-0.147624
-0.144835
-0.141829
-0.138998
-0.136399
-0.133916
-0.131301
-0.128436
-0.125363
-0.122482
-0.12015
-0.118676
-0.118241
-0.118546
-0.119217
-0.119858
-0.120168
-0.120223
-0.120198
-0.120321
-0.120664
-0.121102
-0.121323
-0.120932
-0.119734
-0.117682
-0.115157
-0.112599
-0.110606
-0.109566
-0.109708
-0.110994
-0.113175
-0.115798
-0.118327
-0.120173
-0.120822
-0.11979
-0.11668
-0.11113
-0.102816
-0.091558
-0.0773414
-0.0603443
-0.0411255
-0.0205742
0.000210519
0.0199589
0.0375089
0.0518947
0.062595
0.0694566
0.0728267
0.0733964
0.0722579
0.0704574
0.0689936
0.0685571
0.0693859
0.0713173
0.0739264
0.0765861
0.0787511
0.0799439
0.0799569
0.0786958
0.0763263
0.0730625
0.0691982
0.0649149
0.0605225
0.0563194
0.0526254
0.0497792
0.0480366
0.047331
0.047266
0.0472754
0.0467266
0.0452537
0.0428962
0.0401734
0.0377216
0.0361792
0.0358057
0.0365043
0.0377513
0.0390501
0.0398499
0.0397666
0.0387056
0.0366363
0.033578
0.0296203
0.0248649
0.0196214
0.0141893
0.00896918
0.00434317
0.000506119
-0.00254088
-0.0049623
-0.00691807
-0.00861465
-0.010145
-0.0115164
-0.0126857
-0.013637
-0.0143798
-0.0150374
-0.0156391
-0.0162559
-0.0167839
-0.0170924
-0.0170289
-0.016431
-0.0154389
-0.0142674
-0.0132865
-0.0127695
-0.0127658
-0.0130534
-0.0131202
-0.0122925
-0.0100489
-0.00609562
-0.000530397
0.00638516
0.0140781
0.0218508
0.0289697
0.0347366
0.0386202
0.0404478
0.0405103
0.0396998
0.0391356
0.0399354
0.0428876
0.0480911
0.0549985
0.0626214
0.0698964
0.0759461
0.0803347
0.0829564
0.0838674
0.0832157
0.081286
0.0784194
0.0752231
0.0724873
0.0709473
0.070848
0.0716421
0.0721014
0.0704679
0.0652506
0.0555669
0.0415654
0.0243559
0.00548655
-0.0133781
-0.0309077
-0.0463185
-0.0592031
-0.0694397
-0.0769989
-0.0819195
-0.0843722
-0.084796
-0.0837297
-0.0818093
-0.079563
-0.0773993
-0.075578
-0.0742362
-0.0734815
-0.0733124
-0.0735976
-0.0741047
-0.0747013
-0.0753045
-0.0763119
-0.0785927
-0.0834272
-0.0923731
-0.10674
-0.127365
-0.153984
-0.184962
-0.216903
-0.244779
-0.262725
-0.264946
-0.246964
-0.206136
-0.141571
-0.05282
0.0609691
0.20068
0.365557
0.549992
0.740335
0.913576
1.04009
1.09067
1.0459
0.904151
0.684663
0.424006
0.166235
-0.0490467
-0.197056
-0.272369
-0.286988
-0.263087
-0.224285
-0.188525
-0.164834
-0.154418
-0.153707
-0.157786
-0.162592
-0.165866
-0.166981
-0.166094
-0.163607
-0.160018
-0.155868
-0.151766
-0.148311
-0.145948
-0.144921
-0.145148
-0.146149
-0.147334
-0.147913
-0.147367
-0.145509
-0.142636
-0.139459
-0.136835
-0.135471
-0.135577
-0.136748
-0.138013
-0.138248
-0.136531
-0.132437
-0.12635
-0.11919
-0.112088
-0.106107
-0.101785
-0.0991384
-0.0976201
-0.096522
-0.0952407
-0.0934663
-0.0912942
-0.0891475
-0.0873684
-0.0863195
-0.0859814
-0.0861993
-0.0867116
-0.0873023
-0.0878407
-0.0881849
-0.0881271
-0.0873919
-0.0858324
-0.0834066
-0.0804249
-0.0775009
-0.075195
-0.0738438
-0.0734517
-0.073603
-0.0738542
-0.0738653
-0.0737364
-0.073869
-0.0748299
-0.0770302
-0.0805376
-0.0849743
-0.0897997
-0.0943174
-0.0980806
-0.100859
-0.102625
-0.10351
-0.103497
-0.102511
-0.100264
-0.0963736
-0.0904583
-0.0822549
-0.0716982
-0.0589336
-0.0443387
-0.0285009
-0.012233
0.00355318
0.0179545
0.0302164
0.0399424
0.0470808
0.0520394
0.0554767
0.0581025
0.0603799
0.0623927
0.0640142
0.0648834
0.064806
0.0639799
0.0629317
0.0621892
0.0621474
0.062744
0.0633956
0.0634194
0.0621634
0.0594585
0.0556919
0.0516294
0.0479776
0.045181
0.04318
0.041553
0.0398302
0.0377937
0.0355765
0.0336197
0.0323607
0.031879
0.0318571
0.0317524
0.0308298
0.0288336
0.0260506
0.0231025
0.0208271
0.0197785
0.0199435
0.0208126
0.0215151
0.0211511
0.019144
0.0154134
0.0103797
0.00480092
-0.000506612
-0.00481456
-0.00781869
-0.00964696
-0.0107954
-0.0119598
-0.0137537
-0.0164916
-0.0201597
-0.0243106
-0.0283684
-0.0317479
-0.0340197
-0.0350382
-0.0348285
-0.033521
-0.0313631
-0.0287549
-0.0260289
-0.0238264
-0.0226227
-0.0227154
-0.0240493
-0.0261547
-0.0282134
-0.0292788
-0.0284579
-0.0253228
-0.0198722
-0.0124824
-0.00386481
0.00509311
0.0135786
0.0209369
0.0268579
0.0312901
0.0345731
0.037226
0.0399806
0.0436082
0.0487032
0.055474
0.0635937
0.0721351
0.0796319
0.0846241
0.0859114
0.0830522
0.076588
0.0679912
0.059286
0.0524501
0.0488703
0.0489875
0.0521639
0.056761
0.0605324
0.0612171
0.0572302
0.047975
0.033907
0.0164341
-0.00271036
-0.0219006
-0.0399636
-0.056098
-0.069806
-0.0806734
-0.0882757
-0.0923201
-0.0929643
-0.0909154
-0.0874568
-0.0841448
-0.0822988
-0.082742
-0.0854821
-0.0898601
-0.0947815
-0.0991889
-0.102299
-0.103842
-0.104023
-0.103394
-0.102737
-0.102822
-0.104307
-0.107782
-0.113746
-0.122735
-0.135356
-0.152249
-0.173791
-0.199455
-0.22754
-0.254845
-0.276841
-0.28823
-0.283647
-0.257939
-0.206136
-0.123021
-0.00419504
0.15201
0.341335
0.55048
0.755634
0.92489
1.02504
1.03097
0.934419
0.748523
0.505653
0.248909
0.0201606
-0.150816
-0.252398
-0.290848
-0.284408
-0.255118
-0.221563
-0.194816
-0.178327
-0.170555
-0.167852
-0.16687
-0.165536
-0.163347
-0.160515
-0.157594
-0.155225
-0.154102
-0.154971
-0.158221
-0.163803
-0.171004
-0.178486
-0.184448
-0.187165
-0.185559
-0.179482
-0.169813
-0.158369
-0.147191
-0.138045
-0.132024
-0.129222
-0.128898
-0.129954
-0.131085
-0.131285
-0.129908
-0.126857
-0.122458
-0.117476
-0.112806
-0.109219
-0.107153
-0.106431
-0.106422
-0.10634
-0.105447
-0.103488
-0.100765
-0.0980226
-0.0959378
-0.0949336
-0.0950573
-0.095909
-0.0971114
-0.0983946
-0.0996995
-0.101133
-0.102681
-0.104088
-0.104764
-0.103992
-0.101224
-0.0963907
-0.0899767
-0.0829103
-0.0763223
-0.0712337
-0.0682122
-0.0673192
-0.0681666
-0.0699939
-0.0721363
-0.0740492
-0.0757528
-0.0776233
-0.0804538
-0.0850696
-0.0919778
-0.101159
-0.111925
-0.123031
-0.133028
-0.140433
-0.144329
-0.144185
-0.140046
-0.132235
-0.121313
-0.107992
-0.093189
-0.0779713
-0.0634126
-0.0503545
-0.0391795
-0.0296864
-0.0211029
-0.0124523
-0.00278511
0.0083192
0.02092
0.0344862
0.0482392
0.0612967
0.0727746
0.0819569
0.088432
0.0921168
0.0934729
0.0932351
0.0923144
0.0914709
0.0912417
0.0916513
0.0923601
0.0928076
0.0924459
0.091011
0.0886056
0.0858012
0.0833274
0.0818895
0.0817899
0.0828472
0.0843518
0.0854537
0.0853065
0.0835836
0.0806086
0.0771739
0.0742855
0.0726155
0.0722806
0.072843
0.0734166
0.0730638
0.0712629
0.0680591
0.06397
0.0599632
0.0569714
0.0556494
0.0561853
0.0582404
0.0611747
0.0640189
0.0658991
0.0661155
0.0643732
0.060832
0.056013
0.0506347
0.0454515
0.0410585
0.037708
0.0353545
0.0337344
0.0325538
0.0316432
0.0309212
0.0303315
0.0298562
0.0292763
0.0283295
0.0267331
0.0243109
0.021128
0.0174892
0.013844
0.0107174
0.00848085
0.0073628
0.00732518
0.00820998
0.00972288
0.011543
0.0133832
0.0149608
0.0161689
0.0169966
0.0176352
0.0184618
0.0200498
0.022886
0.0273805
0.0336133
0.041318
0.0498767
0.0586023
0.0668467
0.0743198
0.0810238
0.0871102
0.0926337
0.0975342
0.101535
0.104323
0.105757
0.106118
0.105956
0.105939
0.106498
0.107731
0.109291
0.110501
0.11069
0.109408
0.106638
0.102743
0.0985843
0.0951308
0.0934359
0.0942212
0.0976267
0.102899
0.108504
0.112313
0.11221
0.106607
0.0950424
0.0782374
0.0579187
0.0363742
0.0158879
-0.00181062
-0.0157663
-0.0257697
-0.0321714
-0.0357762
-0.0375778
-0.0385215
-0.0393513
-0.040445
-0.0418003
-0.0431622
-0.044081
-0.044261
-0.0435775
-0.0421397
-0.0402738
-0.038262
-0.0363577
-0.0348312
-0.0339437
-0.034081
-0.0358515
-0.0400755
-0.0476127
-0.0592973
-0.0758271
-0.0975922
-0.12433
-0.154807
-0.186497
-0.215482
-0.236403
-0.243023
-0.228809
-0.187266
-0.1122
0.0015082
0.156096
0.348447
0.567253
0.791249
0.990208
1.12984
1.18021
1.12513
0.968633
0.735889
0.467459
0.208474
-0.00333499
-0.146454
-0.218487
-0.232867
-0.211444
-0.176305
-0.14373
-0.121752
-0.111474
-0.109905
-0.112774
-0.116531
-0.119139
-0.119971
-0.119289
-0.117581
-0.115356
-0.113088
-0.111094
-0.109392
-0.107928
-0.10655
-0.105018
-0.103118
-0.100734
-0.0977956
-0.0943854
-0.0907288
-0.0871559
-0.084004
-0.0815054
-0.0797443
-0.0785972
-0.0778857
-0.0773689
-0.0767644
-0.0758468
-0.0743663
-0.0721288
-0.0691161
-0.065517
-0.061693
-0.058254
-0.0556578
-0.0541662
-0.0537773
-0.0541639
-0.0549549
-0.0559245
-0.0569571
-0.0580582
-0.0592935
-0.0605688
-0.0617371
-0.0625375
-0.0627687
-0.0624888
-0.061877
-0.0612514
-0.0609194
-0.0609693
-0.0612452
-0.0614296
-0.0611388
-0.0601678
-0.0585952
-0.0568319
-0.055388
-0.0547385
-0.0551322
-0.056491
-0.0585316
-0.0608099
-0.0629762
-0.0647419
-0.0660745
-0.0670313
-0.0677928
-0.0686255
-0.0697321
-0.0713242
-0.0734785
-0.0760348
-0.0787141
-0.0810286
-0.0824189
-0.0823194
-0.0803046
-0.076036
-0.0694367
-0.0607503
-0.0504561
-0.039194
-0.0278887
-0.0173231
-0.00814193
-0.000670284
0.00526091
0.0101311
0.0146655
0.0195812
0.0254539
0.0323937
0.0403579
0.0489617
0.0578176
0.0667187
0.075648
0.0848581
0.0945593
0.104756
0.115154
0.125137
0.13404
0.141185
0.146397
0.1498
0.151784
0.152718
0.152876
0.152245
0.150655
0.147986
0.144264
0.139761
0.134934
0.13023
0.126018
0.12257
0.119912
0.117927
0.116483
0.115331
0.114308
0.113138
0.11166
0.109706
0.107218
0.104298
0.101193
0.0984204
0.0963888
0.0954513
0.0955771
0.0963878
0.0972337
0.0973953
0.0963143
0.0938857
0.0902697
0.0859046
0.0812753
0.0767786
0.072655
0.0690132
0.0658335
0.0631545
0.0608545
0.0588272
0.0568613
0.0547559
0.0523766
0.0497959
0.0472375
0.0450648
0.0435609
0.042844
0.0427879
0.0430698
0.0433354
0.0433697
0.0430486
0.0424531
0.0416638
0.0405852
0.0390881
0.0369857
0.0341823
0.030862
0.0274753
0.0246942
0.0231892
0.0233764
0.0253031
0.0285974
0.0326322
0.0368155
0.0409112
0.0449312
0.0491959
0.0541063
0.059874
0.0664476
0.0735216
0.0806415
0.0873678
0.0933849
0.0985882
0.102905
0.106303
0.108761
0.110158
0.110353
0.109255
0.107005
0.103988
0.100846
0.0985415
0.097927
0.0994924
0.102836
0.106613
0.108807
0.10719
0.100201
0.0874455
0.0697362
0.0489729
0.0273869
0.00699982
-0.010821
-0.0254568
-0.0369477
-0.045492
-0.0513504
-0.0547236
-0.0558834
-0.0552816
-0.053478
-0.0509938
-0.0484561
-0.046287
-0.0446768
-0.0438204
-0.0437161
-0.0444947
-0.0462061
-0.0488288
-0.0522239
-0.0560512
-0.0597362
-0.0627067
-0.0645328
-0.0652303
-0.0652493
-0.0656301
-0.0677933
-0.07347
-0.0842859
-0.101497
-0.125632
-0.156092
-0.190443
-0.223622
-0.24785
-0.253201
-0.228203
-0.161575
-0.0446328
0.125636
0.343331
0.591355
0.841054
1.05536
1.19567
1.23152
1.14987
0.960779
0.696548
0.403868
0.131472
-0.0825607
-0.219354
-0.280838
-0.284921
-0.256685
-0.219477
-0.188816
-0.170939
-0.164934
-0.166456
-0.170822
-0.174908
-0.17754
-0.178865
-0.179451
-0.179676
-0.179577
-0.178959
-0.177619
-0.175357
-0.172173
-0.168263
-0.163938
-0.159588
-0.15555
-0.152007
-0.149019
-0.146628
-0.144857
-0.143707
-0.143244
-0.143399
-0.143922
-0.144343
-0.144157
-0.142914
-0.140373
-0.136557
-0.131765
-0.126537
-0.121371
-0.116751
-0.1129
-0.109922
-0.107754
-0.10621
-0.105075
-0.1041
-0.103014
-0.101655
-0.0998902
-0.0976892
-0.0952091
-0.0927365
-0.0906456
-0.0892252
-0.0885826
-0.0885384
-0.0887194
-0.0886779
-0.0880362
-0.0866942
-0.0847913
-0.0827035
-0.0809178
-0.0797625
-0.0794364
-0.079766
-0.080513
-0.0812601
-0.081707
-0.0817113
-0.0812247
-0.0803021
-0.0791716
-0.0780543
-0.0771873
-0.0769017
-0.0774942
-0.0792018
-0.0820575
-0.0858114
-0.0899104
-0.0935254
-0.095678
-0.0954234
-0.0920493
-0.0852046
-0.0749621
-0.0618956
-0.046916
-0.0312114
-0.0160241
-0.00246416
0.0087403
0.0172716
0.0234844
0.0281526
0.0324001
0.0372785
0.0435633
0.0515212
0.0608482
0.0708145
0.0804535
0.0889709
0.0958177
0.100835
0.104216
0.106284
0.107321
0.107522
0.10693
0.105577
0.103524
0.100998
0.0982885
0.0957262
0.0935231
0.0917712
0.090362
0.0891689
0.0880326
0.0869318
0.0859551
0.0852072
0.084911
0.0851658
0.0859363
0.0869312
0.0878074
0.0880928
0.0874471
0.0857739
0.0831791
0.0800411
0.0767612
0.0735895
0.0706229
0.0677575
0.0648275
0.0616762
0.0583626
0.0549494
0.0516685
0.0485775
0.0457008
0.0430193
0.0404691
0.0380343
0.0357162
0.0336269
0.0316786
0.0297092
0.0275338
0.0250196
0.0221989
0.0193236
0.0167826
0.0150473
0.014347
0.0146598
0.0156354
0.0167475
0.0173175
0.0166642
0.0143531
0.0103159
0.0048291
-0.00140657
-0.00759378
-0.0128611
-0.0166138
-0.018667
-0.0192598
-0.0187055
-0.0174335
-0.0156237
-0.0132315
-0.0100351
-0.00583059
-0.00049303
0.00588433
0.0131117
0.0209964
0.0291285
0.0372341
0.0449691
0.0519957
0.0579546
0.0626223
0.0660456
0.0685556
0.0707187
0.0731369
0.076261
0.0801982
0.084616
0.0889072
0.0923941
0.0945158
0.0949056
0.0935746
0.0907353
0.0867574
0.0820779
0.0770935
0.0723898
0.0686691
0.0666536
0.0670564
0.0702747
0.0760766
0.0833145
0.0900754
0.0942212
0.0938616
0.0879678
0.0767082
0.0612186
0.0432013
0.0243527
0.00602176
-0.010943
-0.026107
-0.0392106
-0.050054
-0.0584572
-0.0644837
-0.0684293
-0.0709683
-0.0727856
-0.0743975
-0.0761345
-0.0779816
-0.0796875
-0.080972
-0.0815768
-0.0814128
-0.0804145
-0.078556
-0.0760323
-0.0730793
-0.0701516
-0.0681842
-0.0685957
-0.0731773
-0.0837362
-0.101574
-0.126931
-0.158262
-0.19169
-0.220672
-0.236615
-0.229642
-0.189838
-0.108688
0.0189069
0.192835
0.406089
0.643615
0.882638
1.09447
1.24869
1.31878
1.28838
1.15624
0.938459
0.665846
0.377723
0.113124
-0.0976092
-0.238732
-0.310513
-0.326264
-0.306218
-0.270741
-0.235483
-0.209074
-0.193641
-0.18701
-0.185557
-0.186148
-0.18697
-0.187477
-0.187766
-0.188058
-0.188429
-0.188721
-0.188739
-0.188324
-0.187547
-0.186555
-0.185647
-0.184986
-0.184584
-0.184148
-0.183428
-0.182081
-0.179983
-0.177321
-0.174413
-0.171673
-0.169273
-0.167266
-0.165479
-0.163584
-0.161329
-0.158627
-0.155408
-0.151781
-0.147873
-0.143862
-0.139894
-0.13619
-0.133055
-0.130807
-0.129703
-0.129837
-0.130984
-0.132813
-0.134687
-0.136039
-0.136322
-0.13526
-0.132905
-0.129597
-0.125911
-0.122492
-0.119911
-0.118312
-0.117526
-0.117074
-0.116372
-0.114915
-0.112674
-0.109934
-0.107318
-0.105413
-0.10456
-0.104627
-0.105128
-0.105339
-0.104764
-0.103322
-0.101575
-0.100346
-0.10053
-0.102544
-0.106091
-0.110399
-0.114327
-0.116887
-0.117498
-0.115997
-0.112414
-0.106858
-0.0991789
-0.0891353
-0.0764864
-0.061354
-0.0443362
-0.0265806
-0.00939054
0.0059415
0.0185349
0.0280813
0.0349646
0.0400253
0.044438
0.0493083
0.055441
0.0631648
0.0722556
0.0819915
0.0913347
0.0992816
0.104975
0.108054
0.108558
0.106971
0.103952
0.100236
0.0964455
0.0930242
0.0903045
0.0883832
0.087186
0.0865608
0.0861567
0.0857018
0.0848898
0.0835636
0.0816528
0.0791877
0.0761684
0.0726688
0.0688658
0.06503
0.0615331
0.0587972
0.0571023
0.0564009
0.056373
0.0564337
0.0560217
0.0547036
0.0523801
0.0492266
0.0455682
0.0417381
0.0378011
0.0336736
0.029174
0.0242371
0.0189987
0.013796
0.00916242
0.00553477
0.00310026
0.00171933
0.000908798
3.27945e-5
-0.00149482
-0.00392069
-0.00703869
-0.0102771
-0.0128964
-0.0141494
-0.0137007
-0.0117817
-0.00916643
-0.00682953
-0.00572101
-0.00634614
-0.00863618
-0.0120823
-0.0159645
-0.01957
-0.0224849
-0.0246735
-0.0264207
-0.02809
-0.0300033
-0.0322027
-0.0344215
-0.0363005
-0.0372755
-0.0368757
-0.0348249
-0.031095
-0.0258579
-0.0194511
-0.0122675
-0.00465438
0.00311872
0.0108596
0.0184707
0.0257951
0.0327686
0.0393906
0.0457886
0.0522401
0.0589678
0.0660465
0.0732228
0.0798888
0.0851862
0.0882944
0.0886741
0.0863455
0.0819945
0.0768524
0.0723344
0.0698281
0.0703488
0.0741742
0.0806048
0.0879958
0.094161
0.0967928
0.0942739
0.086055
0.0727508
0.0558559
0.0371352
0.0182276
0.000137944
-0.0166657
-0.0319068
-0.0453836
-0.0565829
-0.0649663
-0.0701395
-0.0722163
-0.0719224
-0.070371
-0.068862
-0.0683618
-0.0693492
-0.0717619
-0.0750886
-0.0786646
-0.0819183
-0.0844108
-0.085902
-0.0861616
-0.0850148
-0.0825558
-0.0791631
-0.0755288
-0.0727896
-0.0724562
-0.0761076
-0.0852125
-0.10089
-0.12338
-0.151892
-0.184128
-0.216076
-0.242214
-0.255898
-0.250381
-0.219594
-0.159027
-0.0660374
0.0598393
0.216548
0.399145
0.599315
0.804521
0.997538
1.15686
1.25903
1.28323
1.21699
1.061
0.831708
0.559383
0.281993
0.0362792
-0.150862
-0.267915
-0.319463
-0.321831
-0.296296
-0.262213
-0.232724
-0.213604
-0.204839
-0.203302
-0.20534
-0.208206
-0.210414
-0.211389
-0.210984
-0.209266
-0.206481
-0.203019
-0.199405
-0.196233
-0.194055
-0.193139
-0.193426
-0.194479
-0.195598
-0.196027
-0.195158
-0.192895
-0.189553
-0.18576
-0.182272
-0.179523
-0.177609
-0.176177
-0.174802
-0.173262
-0.171572
-0.170043
-0.168994
-0.168397
-0.16791
-0.166798
-0.164441
-0.160559
-0.15548
-0.150057
-0.145387
-0.142379
-0.14136
-0.142067
-0.143688
-0.145201
-0.145763
-0.144864
-0.142492
-0.139064
-0.135229
-0.131875
-0.129628
-0.128947
-0.129868
-0.131917
-0.134351
-0.136329
-0.137163
-0.136547
-0.134759
-0.132492
-0.13057
-0.129803
-0.130617
-0.132973
-0.13652
-0.140708
-0.145012
-0.149008
-0.152419
-0.155042
-0.156794
-0.157719
-0.157874
-0.157492
-0.156662
-0.155203
-0.152556
-0.147864
-0.14019
-0.128904
-0.114016
-0.0961862
-0.0766173
-0.0567512
-0.0376635
-0.0200905
-0.00433438
0.00974009
0.0224197
0.0339445
0.0445402
0.0542522
0.0629642
0.0705226
0.0768187
0.081904
0.0860171
0.0895835
0.0929621
0.0962612
0.0991
0.100744
0.100392
0.0976286
0.0928396
0.0872646
0.0826105
0.080494
0.0817619
0.0861436
0.0924551
0.0989834
0.104151
0.106978
0.107235
0.105295
0.101809
0.0973198
0.0922729
0.0869153
0.0813464
0.0755826
0.0697276
0.0639943
0.0585924
0.0538414
0.0500074
0.0473273
0.0457541
0.0450007
0.0445379
0.0436358
0.0417331
0.0385983
0.0343232
0.0295859
0.0251396
0.0217503
0.019913
0.0196108
0.0203603
0.021487
0.0221469
0.0217431
0.0199699
0.0168591
0.012744
0.00821788
0.00402813
0.000803198
-0.000968867
-0.0012396
-0.000349958
0.000991735
0.00186224
0.00134575
-0.00100726
-0.00509415
-0.010191
-0.0153237
-0.0192972
-0.0212683
-0.0208485
-0.0182934
-0.0143153
-0.00979015
-0.00561724
-0.00245389
-0.000646942
-0.000175056
-0.000777913
-0.00198293
-0.00304914
-0.00322236
-0.00183333
0.00155115
0.00697491
0.0139839
0.0217865
0.0293781
0.0358595
0.0408342
0.044443
0.0474243
0.0507363
0.0552226
0.0613818
0.0689502
0.0770163
0.0843465
0.0897263
0.0923709
0.0922167
0.089813
0.0862869
0.0829445
0.0810406
0.0815793
0.0849859
0.091089
0.0990216
0.107153
0.113385
0.115663
0.112521
0.103492
0.0894493
0.0722564
0.0542572
0.0374012
0.0228655
0.0107568
0.000274271
-0.00957865
-0.0194939
-0.0294598
-0.0387661
-0.0463885
-0.0514148
-0.0534774
-0.052869
-0.0505222
-0.0476498
-0.0452314
-0.0438318
-0.0433151
-0.0432228
-0.0428357
-0.0416476
-0.0394894
-0.0365676
-0.0332641
-0.0300794
-0.027445
-0.025887
-0.0262373
-0.0297946
-0.0380377
-0.0524346
-0.073832
-0.101867
-0.134411
-0.167143
-0.193473
-0.204932
-0.191664
-0.1434
-0.0510639
0.0902985
0.278325
0.500396
0.732371
0.940712
1.08846
1.1444
1.09251
0.938048
0.707782
0.443455
0.190516
-0.0141165
-0.150366
-0.217426
-0.229812
-0.209523
-0.1779
-0.149748
-0.131696
-0.123798
-0.122779
-0.124904
-0.127573
-0.129743
-0.131484
-0.133031
-0.134519
-0.135673
-0.136268
-0.13612
-0.135159
-0.133416
-0.131131
-0.12861
-0.126141
-0.123953
-0.1222
-0.120896
-0.119913
-0.118948
-0.117744
-0.116129
-0.114011
-0.111569
-0.109084
-0.106878
-0.10522
-0.104152
-0.103465
-0.102785
-0.101781
-0.100135
-0.0977375
-0.094749
-0.0913767
-0.0877948
-0.0840893
-0.0803074
-0.0764392
-0.0725602
-0.0689408
-0.0658632
-0.0637081
-0.0626548
-0.0627745
-0.0640238
-0.0660966
-0.0686326
-0.0712906
-0.0737148
-0.0756875
-0.0771357
-0.0780481
-0.0784072
-0.0782471
-0.0775381
-0.0761953
-0.0742955
-0.0719642
-0.0694265
-0.0669431
-0.0647946
-0.0631413
-0.062095
-0.0617807
-0.0623995
-0.0642215
-0.0674754
-0.0722565
-0.0785152
-0.0858748
-0.0936782
-0.101212
-0.107705
-0.112504
-0.11511
-0.115138
-0.112238
-0.106216
-0.0969166
-0.0843826
-0.0688927
-0.0509782
-0.0315236
-0.0115474
0.00793327
0.0259622
0.0418929
0.0554679
0.0667775
0.0761564
0.0841557
0.0913155
0.0979883
0.104289
0.110192
0.115475
0.1199
0.123266
0.125478
0.126655
0.127059
0.126949
0.126521
0.125887
0.124942
0.123633
0.121981
0.120007
0.117926
0.116014
0.114426
0.113194
0.112324
0.111657
0.111003
0.110176
0.108892
0.106916
0.103999
0.100045
0.0951844
0.0898634
0.0847147
0.0803474
0.0771965
0.0752975
0.0742957
0.073616
0.0726441
0.0710271
0.0687226
0.06592
0.0629362
0.0601054
0.0576458
0.0555612
0.0537853
0.0521829
0.0505276
0.0485921
0.0461668
0.0431129
0.0394506
0.0353304
0.0310777
0.027007
0.0234034
0.0204025
0.017994
0.0161276
0.0146666
0.0134837
0.0123829
0.0112308
0.00999063
0.00865592
0.00727209
0.00609198
0.00532621
0.00527299
0.00617378
0.00822627
0.0114871
0.0159159
0.0213086
0.0273206
0.0335905
0.0397537
0.0455039
0.0506581
0.0551515
0.0589017
0.0618142
0.0639182
0.0652968
0.0662757
0.0673572
0.069186
0.0723125
0.0769281
0.0827416
0.0889319
0.0944119
0.098045
0.0990375
0.0972629
0.0933589
0.0885852
0.0845725
0.0828781
0.0845956
0.0898523
0.0974724
0.105239
0.110384
0.11042
0.103684
0.0900797
0.0708012
0.047902
0.0237845
0.000562597
-0.020149
-0.0374606
-0.0508718
-0.0602968
-0.0659465
-0.0684126
-0.0687141
-0.0680189
-0.0673765
-0.0676333
-0.0691311
-0.0716797
-0.074806
-0.0777826
-0.0799765
-0.0809238
-0.0803489
-0.0782303
-0.0747603
-0.0703159
-0.065494
-0.0611532
-0.0582579
-0.0578672
-0.0611174
-0.0690653
-0.0825614
-0.10206
-0.127643
-0.158536
-0.19247
-0.224923
-0.248618
-0.253438
-0.227106
-0.157134
-0.0341632
0.143472
0.365893
0.609443
0.838534
1.012
1.09337
1.06167
0.919145
0.692181
0.424752
0.166017
-0.0432906
-0.180877
-0.245707
-0.25379
-0.229464
-0.195933
-0.168855
-0.154318
-0.150969
-0.15401
-0.158466
-0.161347
-0.161791
-0.160443
-0.158496
-0.156812
-0.15581
-0.155451
-0.155363
-0.155026
-0.154097
-0.152245
-0.149462
-0.14586
-0.141695
-0.137162
-0.132539
-0.128022
-0.123779
-0.11998
-0.116687
-0.11401
-0.111953
-0.110537
-0.109786
-0.109656
-0.110094
-0.11083
-0.111499
-0.111662
-0.110968
-0.109243
-0.106707
-0.103716
-0.100732
-0.0982467
-0.0964314
-0.095304
-0.0946906
-0.0943352
-0.0939446
-0.0934158
-0.0926184
-0.0914098
-0.0897116
-0.0874269
-0.0846408
-0.0815299
-0.078441
-0.0756891
-0.0735505
-0.0721272
-0.0712996
-0.0708814
-0.0707033
-0.0706326
-0.0705993
-0.0706318
-0.0707007
-0.0708319
-0.0711267
-0.0716129
-0.0723875
-0.0734798
-0.0747885
-0.0761247
-0.0772721
-0.0779785
-0.0782203
-0.0780838
-0.0777784
-0.0775343
-0.0773427
-0.0769178
-0.0756382
-0.0727185
-0.0672885
-0.0586585
-0.0465456
-0.0312639
-0.0135994
0.0051263
0.0234144
0.0398023
0.0532507
0.0633162
0.0702217
0.0746512
0.0775176
0.0796126
0.0813958
0.083027
0.0843742
0.0852358
0.0855644
0.0853636
0.0847877
0.0840998
0.0835189
0.0831551
0.0830607
0.0832085
0.0834497
0.0835711
0.0832514
0.0823151
0.0805225
0.077963
0.0747674
0.0712531
0.0677152
0.0643804
0.0612954
0.0584372
0.0557303
0.0531743
0.050958
0.0493323
0.0485369
0.0486419
0.0494308
0.0504685
0.0511321
0.0508465
0.0491669
0.045967
0.0413901
0.0358954
0.0300108
0.0243598
0.019421
0.0154535
0.0125135
0.0103569
0.00879222
0.0075354
0.00645241
0.00551825
0.0048046
0.00433848
0.00415168
0.0041981
0.00428538
0.0042235
0.00381109
0.00281368
0.00112758
-0.00130204
-0.00427782
-0.0075838
-0.010872
-0.0137655
-0.0159837
-0.0173894
-0.0179278
-0.0178161
-0.0172554
-0.016656
-0.0163154
-0.0164466
-0.017181
-0.018323
-0.0195907
-0.020468
-0.0204138
-0.0189193
-0.0156696
-0.0106205
-0.00391046
0.00415072
0.013123
0.0226334
0.0322801
0.041639
0.0503602
0.0582557
0.0652246
0.0713475
0.0767373
0.0814739
0.0854331
0.0883446
0.0897437
0.0893127
0.08698
0.0831971
0.0788807
0.0752416
0.0735616
0.0747215
0.0788162
0.0849807
0.0913796
0.0957304
0.095977
0.090925
0.0806682
0.0664408
0.0501584
0.0338263
0.0188528
0.00573233
-0.00577639
-0.016175
-0.025896
-0.0349504
-0.042979
-0.0495799
-0.0545597
-0.0580436
-0.0604658
-0.0623857
-0.0642729
-0.0663677
-0.0685988
-0.0706959
-0.0722217
-0.0727592
-0.0720486
-0.0700106
-0.0668466
-0.0633227
-0.0608246
-0.0613685
-0.067319
-0.0809195
-0.103723
-0.135766
-0.174318
-0.213546
-0.243822
-0.252235
-0.224097
-0.146147
-0.0110882
0.177579
0.402201
0.630933
0.823218
0.939222
0.951549
0.854419
0.666756
0.427301
0.183467
-0.0224296
-0.164136
-0.235964
-0.24995
-0.227992
-0.192714
-0.160645
-0.139732
-0.130476
-0.129592
-0.133009
-0.137759
-0.142291
-0.146128
-0.149103
-0.150973
-0.151462
-0.150502
-0.148169
-0.144874
-0.141079
-0.137249
-0.133758
-0.130861
-0.12869
-0.127254
-0.126471
-0.126093
-0.125814
-0.125407
-0.124662
-0.123462
-0.121895
-0.120012
-0.117877
-0.115528
-0.112934
-0.109969
-0.106595
-0.102788
-0.0986704
-0.0944997
-0.0905163
-0.0869887
-0.0840511
-0.0817933
-0.0801661
-0.0790521
-0.0782344
-0.0775051
-0.0765909
-0.0752603
-0.0733085
-0.070773
-0.067752
-0.064493
-0.0613363
-0.0585334
-0.0561847
-0.054358
-0.0530163
-0.0521062
-0.051522
-0.0511045
-0.0506507
-0.0500756
-0.0492891
-0.0482987
-0.0473296
-0.0466031
-0.0464099
-0.0470093
-0.0484533
-0.0506504
-0.0533757
-0.0562247
-0.058743
-0.060548
-0.0615094
-0.0616957
-0.061637
-0.0619631
-0.0631486
-0.0653793
-0.0682205
-0.0706829
-0.0713936
-0.0689469
-0.0623244
-0.0512294
-0.0362396
-0.0185903
0.000158585
0.0184855
0.0352625
0.0498227
0.0619713
0.071862
0.0796187
0.0853264
0.0890699
0.0909971
0.0913405
0.0904907
0.0889135
0.0869473
0.0848508
0.0826519
0.0802582
0.0776402
0.0748075
0.0719763
0.0693668
0.0671803
0.0656129
0.0646879
0.0643445
0.0644646
0.064766
0.0648283
0.0642459
0.062728
0.0602409
0.0571006
0.0539048
0.0512853
0.0496498
0.0489784
0.0487176
0.0480476
0.0462409
0.042935
0.0382885
0.0330456
0.0281691
0.0245391
0.0226403
0.0223712
0.0231685
0.0241713
0.0244835
0.0235314
0.0211489
0.0175886
0.0133211
0.00898987
0.0051129
0.0020822
-8.44056e-7
-0.00134905
-0.00242933
-0.00372311
-0.00571672
-0.0086316
-0.0122523
-0.0161762
-0.0198607
-0.0228444
-0.0248349
-0.0258965
-0.0262303
-0.0260555
-0.0255307
-0.0247638
-0.0239054
-0.0231673
-0.0227812
-0.023022
-0.0239165
-0.0253298
-0.0268792
-0.0280441
-0.0284545
-0.0279465
-0.0266427
-0.0249227
-0.0231343
-0.0215025
-0.0199543
-0.0182298
-0.0160043
-0.0129096
-0.00873416
-0.00340821
0.00295117
0.0101297
0.0178147
0.0256775
0.0334248
0.0408831
0.0480342
0.0549863
0.0618606
0.0686786
0.0751075
0.080637
0.0845502
0.0861767
0.0853309
0.0822356
0.0776501
0.0727891
0.068978
0.0673916
0.0688229
0.0733302
0.0801501
0.0875297
0.0932593
0.0950599
0.0912942
0.081496
0.0664921
0.0481747
0.0287928
0.0102683
-0.0063003
-0.0207333
-0.0334526
-0.0449007
-0.0551922
-0.0639859
-0.0706101
-0.0745509
-0.0756571
-0.0743436
-0.0715957
-0.0686444
-0.0666713
-0.0665651
-0.0685994
-0.0723692
-0.0771076
-0.0816626
-0.0850245
-0.0865421
-0.0863278
-0.0854479
-0.0857967
-0.0898766
-0.100097
-0.118266
-0.144693
-0.177488
-0.212158
-0.241687
-0.256875
-0.247281
-0.202424
-0.113568
0.0240123
0.208411
0.429217
0.666812
0.894014
1.08017
1.19683
1.22393
1.15489
0.998515
0.777396
0.523055
0.269403
0.0460551
-0.126729
-0.240522
-0.298405
-0.311814
-0.296467
-0.268043
-0.238842
-0.21622
-0.202662
-0.197016
-0.196487
-0.198094
-0.199891
-0.200929
-0.201103
-0.200599
-0.199756
-0.198885
-0.198289
-0.19813
-0.19847
-0.199053
-0.199416
-0.198972
-0.197299
-0.194331
-0.190389
-0.186041
-0.181813
-0.178138
-0.175112
-0.172556
-0.170302
-0.168219
-0.166362
-0.164974
-0.164131
-0.163878
-0.163981
-0.163986
-0.163432
-0.162077
-0.159794
-0.156859
-0.15362
-0.1505
-0.147731
-0.145392
-0.143485
-0.141884
-0.14054
-0.139456
-0.138698
-0.138371
-0.138481
-0.138892
-0.139363
-0.139578
-0.13908
-0.13751
-0.134597
-0.130272
-0.124875
-0.118958
-0.113279
-0.108681
-0.105786
-0.104966
-0.106402
-0.109861
-0.114921
-0.120918
-0.12707
-0.132559
-0.136653
-0.139074
-0.140003
-0.140135
-0.140399
-0.141535
-0.143839
-0.146797
-0.149316
-0.149934
-0.147454
-0.141216
-0.131324
-0.118598
-0.104211
-0.0893575
-0.0749023
-0.0612342
-0.0483848
-0.0359479
-0.0235859
-0.0110123
0.0018857
0.0150643
0.0283371
0.0415153
0.054363
0.0666126
0.0778049
0.0874143
0.0948018
0.099495
0.101439
0.100971
0.0989494
0.0964663
0.0945367
0.0938473
0.0944329
0.0957965
0.0971388
0.0976205
0.0968104
0.0947822
0.0920996
0.0893111
0.0871291
0.0859069
0.0857988
0.0866784
0.0883536
0.090403
0.0922491
0.0931627
0.0922855
0.0889859
0.0831745
0.0754066
0.0669064
0.0592037
0.0536413
0.0509879
0.0511901
0.0533507
0.0562151
0.0585473
0.059511
0.0589588
0.0572373
0.0549911
0.0526885
0.0505741
0.0483719
0.0458161
0.0424675
0.038219
0.0332742
0.0281699
0.0235132
0.0197315
0.0170154
0.0152056
0.0139135
0.012596
0.0108365
0.0083698
0.0052963
0.00177917
-0.00173153
-0.00487842
-0.00739086
-0.00921475
-0.0104675
-0.0114339
-0.0122788
-0.0131773
-0.0140351
-0.0147184
-0.0149485
-0.0147546
-0.0142133
-0.013593
-0.0132065
-0.0132657
-0.0138015
-0.0147143
-0.0158367
-0.0170288
-0.0182543
-0.0194692
-0.0206788
-0.0218283
-0.0228623
-0.0235956
-0.0239145
-0.0236509
-0.0226608
-0.0208535
-0.0181975
-0.0146058
-0.0101071
-0.00457215
0.00202792
0.00978958
0.018622
0.0283255
0.0383966
0.0482739
0.0574207
0.0654204
0.0721659
0.0777802
0.0825768
0.0867714
0.0904532
0.0935225
0.0956087
0.09639
0.0955898
0.0932646
0.0896991
0.0854603
0.0813512
0.0781401
0.0765338
0.0770543
0.0798699
0.0846148
0.0903357
0.0954768
0.0982072
0.0968427
0.0903885
0.0787433
0.0627594
0.0440751
0.0245374
0.00598283
-0.0102463
-0.0233017
-0.0329371
-0.0393096
-0.0429769
-0.0448055
-0.045731
-0.0467334
-0.0483757
-0.0507518
-0.0536338
-0.0564647
-0.0587823
-0.0604445
-0.0614142
-0.0618086
-0.0616646
-0.0609449
-0.0595814
-0.0578498
-0.0564999
-0.0569151
-0.0608388
-0.0699901
-0.0857101
-0.108545
-0.137807
-0.171413
-0.205928
-0.236884
-0.259056
-0.267042
-0.255422
-0.218474
-0.149998
-0.0438943
0.103679
0.290823
0.506276
0.727342
0.921473
1.05255
1.09065
1.02191
0.85455
0.618148
0.355909
0.112654
-0.0772238
-0.197515
-0.250876
-0.253956
-0.228991
-0.195961
-0.167676
-0.149008
-0.139137
-0.134791
-0.132815
-0.13132
-0.129861
-0.128738
-0.128248
-0.128402
-0.129056
-0.129908
-0.130738
-0.131328
-0.131487
-0.131015
-0.129817
-0.12791
-0.125492
-0.122884
-0.120519
-0.118673
-0.117525
-0.11697
-0.116725
-0.116486
-0.115972
-0.115052
-0.11368
-0.111815
-0.109398
-0.106426
-0.102845
-0.0987393
-0.0943612
-0.0901318
-0.0863378
-0.083243
-0.0809278
-0.079313
-0.0782256
-0.0775851
-0.0773273
-0.0774517
-0.0778515
-0.0783832
-0.0787383
-0.0786511
-0.0778914
-0.076479
-0.074577
-0.0724504
-0.0704405
-0.0686945
-0.0673228
-0.0663774
-0.0658359
-0.0656999
-0.0659233
-0.066371
-0.0668018
-0.0669023
-0.0664216
-0.0652373
-0.0634037
-0.0612606
-0.059341
-0.0582117
-0.0583991
-0.0601759
-0.0635923
-0.068304
-0.0738829
-0.0797467
-0.0854359
-0.0905216
-0.0947474
-0.097819
-0.099306
-0.098818
-0.0958084
-0.0899332
-0.0812193
-0.0700517
-0.0572717
-0.0440383
-0.0315939
-0.0208615
-0.0123229
-0.00584011
-0.000798293
0.00375421
0.00884535
0.0152337
0.0232979
0.0330935
0.044264
0.0560762
0.067748
0.0785011
0.0877201
0.0950945
0.100618
0.104548
0.107248
0.109042
0.110057
0.110361
0.110004
0.109099
0.107943
0.106846
0.106121
0.105836
0.105913
0.106074
0.106038
0.105642
0.104864
0.103901
0.103083
0.102584
0.102468
0.102684
0.102961
0.10293
0.102314
0.100969
0.0989037
0.0963977
0.0936171
0.0908576
0.0881733
0.0855088
0.0827027
0.0796463
0.0762399
0.0726526
0.0690741
0.0657598
0.0627606
0.0600756
0.0576012
0.0552623
0.0530354
0.0509302
0.0488931
0.0467865
0.0444569
0.0416992
0.0385099
0.0350682
0.0317435
0.0288705
0.0266935
0.0250781
0.0237738
0.0222909
0.0203703
0.0178929
0.0150349
0.0121147
0.00936972
0.00694552
0.00476288
0.00263545
0.000445355
-0.00176922
-0.00384608
-0.00561463
-0.00694849
-0.00789093
-0.0086157
-0.00925243
-0.00987171
-0.0103355
-0.0103778
-0.00972846
-0.00819373
-0.00569739
-0.00223989
0.00205715
0.00707506
0.0127193
0.0187845
0.02503
0.0310621
0.0364424
0.0408505
0.0440919
0.0463428
0.0481299
0.0501497
0.0530051
0.0570797
0.0623184
0.0682111
0.0740475
0.0792547
0.0834813
0.0867773
0.0893344
0.0912485
0.0924507
0.0925538
0.0911209
0.0879355
0.0832666
0.0780256
0.0735234
0.0711934
0.0721227
0.0767554
0.0844693
0.0936441
0.101956
0.106894
0.106383
0.0993932
0.0861908
0.0681594
0.0474083
0.026204
0.00629964
-0.0112469
-0.0260587
-0.0382052
-0.047778
-0.0548177
-0.0593967
-0.061763
-0.0623665
-0.061974
-0.0613079
-0.0610371
-0.0615514
-0.0627963
-0.0644463
-0.0661306
-0.0674665
-0.0682059
-0.0682019
-0.0673108
-0.0654583
-0.0627193
-0.0593849
-0.0560887
-0.0539752
-0.0546227
-0.0598791
-0.0715269
-0.0908427
-0.1181
-0.152087
-0.189768
-0.226311
-0.25532
-0.269711
-0.262559
-0.227759
-0.160097
-0.0553013
0.0888843
0.270954
0.482862
0.707577
0.918555
1.0827
1.16742
1.15008
1.02641
0.814118
0.549583
0.278468
0.0432039
-0.127763
-0.225459
-0.259099
-0.249451
-0.220009
-0.189584
-0.168586
-0.159453
-0.159558
-0.164415
-0.170219
-0.174689
-0.177064
-0.177487
-0.176451
-0.174388
-0.171746
-0.168944
-0.166299
-0.163953
-0.161879
-0.159943
-0.157971
-0.15577
-0.153162
-0.150109
-0.146594
-0.142709
-0.138676
-0.134728
-0.131049
-0.127723
-0.12471
-0.121862
-0.119046
-0.116321
-0.113814
-0.111651
-0.110106
-0.109232
-0.108793
-0.108512
-0.108039
-0.107177
-0.105979
-0.104748
-0.103902
-0.103765
-0.104385
-0.105516
-0.106752
-0.107685
-0.107998
-0.107638
-0.106612
-0.104966
-0.102772
-0.1
-0.0966586
-0.0928882
-0.0889921
-0.0853716
-0.0824057
-0.0803546
-0.0791991
-0.0786844
-0.0784735
-0.078215
-0.0777496
-0.0770644
-0.076356
-0.0759118
-0.0759295
-0.0764939
-0.0775818
-0.0790818
-0.0809408
-0.0831497
-0.0856955
-0.0884705
-0.0912536
-0.0936144
-0.0949421
-0.0946564
-0.0921474
-0.0869355
-0.0787612
-0.0675469
-0.0534719
-0.0371117
-0.0192492
-0.00100587
0.0164255
0.0319754
0.0449123
0.0548806
0.0621107
0.0670868
0.0704679
0.0728619
0.0747613
0.076499
0.078246
0.0801365
0.0822611
0.0846413
0.0871968
0.0897697
0.0921218
0.094029
0.0952918
0.0957661
0.0954751
0.0945102
0.0930683
0.0914347
0.0899108
0.0887812
0.0881362
0.0879196
0.0878723
0.0876705
0.0868699
0.085268
0.0827222
0.0793947
0.0756304
0.0717444
0.0680916
0.064843
0.0619602
0.0592167
0.0563985
0.0533144
0.0498712
0.0462278
0.0426885
0.0396831
0.0375345
0.0363566
0.0360672
0.0363071
0.03654
0.0362465
0.0351304
0.0331655
0.0305944
0.0278247
0.0253789
0.0235467
0.0223523
0.0216161
0.0208289
0.0194042
0.0167594
0.012605
0.00695463
0.000273615
-0.00678003
-0.0134772
-0.0191474
-0.0234376
-0.0262548
-0.0277861
-0.028416
-0.0285493
-0.0285887
-0.0289707
-0.0298554
-0.031346
-0.0334323
-0.0359799
-0.0387292
-0.04147
-0.0440584
-0.0463731
-0.0482895
-0.0497191
-0.0506188
-0.0509026
-0.0505604
-0.0496606
-0.0483524
-0.0468928
-0.0455038
-0.0443883
-0.0436261
-0.0431528
-0.0428386
-0.0424204
-0.0416371
-0.0402004
-0.0379851
-0.034747
-0.0305067
-0.025374
-0.0194726
-0.0130244
-0.00623677
0.000736141
0.00786123
0.0149807
0.0220883
0.0288693
0.0351405
0.0406319
0.0452248
0.0490638
0.0525502
0.0562649
0.060757
0.0663657
0.0728893
0.0796705
0.0856739
0.0897156
0.0909982
0.0892527
0.0850819
0.0797224
0.0748137
0.0720194
0.0724514
0.0763812
0.0828314
0.0900027
0.0953781
0.0967952
0.0927293
0.0829906
0.0683686
0.0505238
0.0313376
0.0123136
-0.00538897
-0.0211314
-0.03449
-0.0451499
-0.0528391
-0.0576078
-0.0598328
-0.0602486
-0.0597842
-0.0592199
-0.0591025
-0.0596267
-0.0606885
-0.0620747
-0.0635773
-0.0651106
-0.0664724
-0.067606
-0.068298
-0.0684189
-0.0678743
-0.0667339
-0.0650436
-0.062914
-0.0605395
-0.0581211
-0.0562238
-0.0557316
-0.0580163
-0.0647068
-0.0773853
-0.0970697
-0.123782
-0.15608
-0.190633
-0.222011
-0.242808
-0.244246
-0.216657
-0.150599
-0.0390388
0.119845
0.319659
0.543516
0.763984
0.946562
1.05676
1.06935
0.976574
0.792162
0.549064
0.290801
0.0596881
-0.113963
-0.218065
-0.258503
-0.253497
-0.225375
-0.19319
-0.168475
-0.15492
-0.150859
-0.152482
-0.155988
-0.15908
-0.161013
-0.162047
-0.162694
-0.163436
-0.164442
-0.165621
-0.166606
-0.167047
-0.166712
-0.165734
-0.164464
-0.163391
-0.162684
-0.162066
-0.16096
-0.158561
-0.154377
-0.148447
-0.141425
-0.134323
-0.128114
-0.123503
-0.120668
-0.11934
-0.119
-0.119056
-0.119041
-0.118673
-0.117808
-0.116431
-0.114721
-0.112909
-0.111307
-0.110168
-0.109714
-0.109871
-0.110474
-0.111225
-0.111836
-0.112143
-0.111934
-0.111186
-0.109845
-0.10788
-0.10531
-0.102328
-0.0992343
-0.0964316
-0.0942696
-0.0927682
-0.0917816
-0.0908928
-0.0897221
-0.0879754
-0.0856369
-0.0829744
-0.0804178
-0.078394
-0.0772264
-0.0770861
-0.0778847
-0.0794133
-0.0814457
-0.083767
-0.0861753
-0.0885658
-0.0908741
-0.092963
-0.0947782
-0.09629
-0.0974022
-0.0979346
-0.0976167
-0.0959029
-0.0920406
-0.08536
-0.075362
-0.0620618
-0.0461224
-0.0286899
-0.0112935
0.0046363
0.0181015
0.0286163
0.0363319
0.0418718
0.0460364
0.0495174
0.0527874
0.0560413
0.0592428
0.0623492
0.0654205
0.0684569
0.0715452
0.0747294
0.0778537
0.0806866
0.0829061
0.0842994
0.0847412
0.0843317
0.0832789
0.0818212
0.0801878
0.0785038
0.0770164
0.0758249
0.0750724
0.0748931
0.075279
0.0760398
0.0768379
0.0771383
0.0764329
0.074329
0.0706417
0.0655673
0.0594238
0.0527819
0.0462716
0.0404384
0.035717
0.032222
0.0298232
0.0281581
0.026874
0.0257355
0.0246973
0.0239226
0.0236213
0.0238926
0.0244199
0.0247485
0.0242604
0.0225561
0.0195844
0.0156735
0.0113487
0.0072559
0.0037162
0.00082915
-0.00159315
-0.0038189
-0.0061603
-0.00873216
-0.0115549
-0.0145523
-0.017605
-0.0206332
-0.0236497
-0.0267095
-0.029852
-0.033079
-0.0362646
-0.0392505
-0.0417896
-0.0436688
-0.0447965
-0.0452368
-0.0450781
-0.0444117
-0.0433272
-0.0417069
-0.0393958
-0.036432
-0.033021
-0.0296322
-0.0268025
-0.02515
-0.024962
-0.0263965
-0.0291575
-0.0327711
-0.0366378
-0.0400577
-0.0424526
-0.0434046
-0.0428027
-0.0407689
-0.0377071
-0.0342039
-0.0307656
-0.0278237
-0.0255067
-0.0237594
-0.0223009
-0.0207151
-0.018559
-0.0155554
-0.011547
-0.0066147
-0.000953583
0.00516603
0.0113824
0.0175393
0.023538
0.0294408
0.0353022
0.0411938
0.0471145
0.052917
0.058439
0.063514
0.0681483
0.0723391
0.0761938
0.0797765
0.0829242
0.085399
0.0868421
0.0871891
0.0866773
0.0858847
0.0857283
0.0871007
0.0904795
0.0957235
0.101766
0.106815
0.108891
0.106107
0.0973667
0.0826694
0.0630525
0.0405308
0.0174571
-0.00403683
-0.0223663
-0.0367639
-0.0472443
-0.0544075
-0.0591504
-0.0623697
-0.0646522
-0.0663455
-0.0674371
-0.0679149
-0.0677444
-0.0670754
-0.0661876
-0.0653785
-0.0648354
-0.0646981
-0.0649351
-0.0654783
-0.0662804
-0.0672085
-0.0682446
-0.0694432
-0.0708283
-0.0727473
-0.0757778
-0.0808929
-0.0892378
-0.102022
-0.120139
-0.143835
-0.172267
-0.202911
-0.231309
-0.251199
-0.254671
-0.232632
-0.175773
-0.0763286
0.0693003
0.257487
0.474548
0.695907
0.888532
1.01735
1.05409
0.986142
0.821836
0.589738
0.331374
0.0901447
-0.100195
-0.222804
-0.279313
-0.28522
-0.262232
-0.230374
-0.203071
-0.185998
-0.178949
-0.178713
-0.181811
-0.185643
-0.18896
-0.191124
-0.191732
-0.190562
-0.187728
-0.183657
-0.179063
-0.174642
-0.170698
-0.167057
-0.163177
-0.158448
-0.152545
-0.145631
-0.13829
-0.131488
-0.125996
-0.122412
-0.120923
-0.121377
-0.123303
-0.126076
-0.12917
-0.132128
-0.134627
-0.136384
-0.137078
-0.136446
-0.134295
-0.130702
-0.126009
-0.120841
-0.115928
-0.111815
-0.108766
-0.106603
-0.104832
-0.102945
-0.100554
-0.0977078
-0.0947831
-0.0922097
-0.0905767
-0.0901035
-0.0907485
-0.0921053
-0.0936628
-0.0949212
-0.0955367
-0.0955058
-0.0949251
-0.0941922
-0.0934317
-0.0925821
-0.0913997
-0.0895299
-0.0867799
-0.0834953
-0.0803967
-0.0784217
-0.0783825
-0.0806595
-0.0850548
-0.0908396
-0.0971171
-0.103089
-0.108274
-0.112638
-0.116327
-0.119542
-0.122289
-0.124347
-0.125231
-0.124379
-0.121101
-0.114813
-0.105111
-0.0917886
-0.0751993
-0.0560633
-0.0356103
-0.0153321
0.00318697
0.0188174
0.0310332
0.039923
0.046266
0.0511372
0.0556677
0.0606956
0.0665781
0.0732794
0.0804072
0.0874629
0.0940598
0.100051
0.105456
0.110323
0.114552
0.117989
0.120328
0.121356
0.121106
0.119865
0.118287
0.116998
0.116507
0.117025
0.118412
0.120281
0.122119
0.123426
0.123803
0.123087
0.121313
0.118655
0.115463
0.112098
0.108746
0.105633
0.102735
0.0998915
0.0969227
0.0936047
0.0898809
0.0857547
0.0813679
0.0770296
0.0730158
0.0697
0.0671932
0.0654625
0.0642034
0.0629689
0.0613396
0.0590247
0.0560411
0.0527098
0.049485
0.0467151
0.0444088
0.0424082
0.0403002
0.0377341
0.0348442
0.0318457
0.0292624
0.0276404
0.0271089
0.0274894
0.0281854
0.0284789
0.0278169
0.0259898
0.0232678
0.0201279
0.0172535
0.0150604
0.0137358
0.0130976
0.0128685
0.012869
0.0130728
0.0136271
0.0146548
0.0161728
0.0179585
0.0196518
0.0208828
0.0215225
0.0215115
0.0210426
0.0202987
0.0193002
0.017992
0.0162705
0.0141734
0.0118423
0.00955114
0.00761701
0.00622939
0.00550152
0.00541058
0.00592977
0.00706109
0.00896861
0.0119393
0.0161827
0.021841
0.0288958
0.0371013
0.0461274
0.0555215
0.0648041
0.0736451
0.0817834
0.0891684
0.0958701
0.101979
0.107557
0.112609
0.116907
0.120011
0.121553
0.121185
0.118957
0.115389
0.11146
0.108326
0.107212
0.108832
0.11303
0.118545
0.123327
0.12507
0.121868
0.113036
0.0990907
0.08181
0.0634244
0.0460553
0.03115
0.0191566
0.00980775
0.00243173
-0.00361818
-0.00878276
-0.0132484
-0.017016
-0.0203249
-0.0233641
-0.0264503
-0.0298976
-0.0337944
-0.0379418
-0.0419798
-0.0454389
-0.0480588
-0.0497413
-0.0506567
-0.0510495
-0.0511268
-0.0510109
-0.0507009
-0.0503096
-0.0503283
-0.0520475
-0.0573979
-0.0684931
-0.0872201
-0.114123
-0.14737
-0.181986
-0.209721
-0.219543
-0.198526
-0.13418
-0.0174935
0.153306
0.369105
0.608028
0.836449
1.0147
1.10644
1.08886
0.960941
0.745141
0.482224
0.220057
0.000427185
-0.151407
-0.230637
-0.250043
-0.231993
-0.199639
-0.16993
-0.150949
-0.143257
-0.143313
-0.146708
-0.150219
-0.15241
-0.153244
-0.153229
-0.152808
-0.152265
-0.151766
-0.151189
-0.150336
-0.149081
-0.147177
-0.144643
-0.141603
-0.138493
-0.135792
-0.134014
-0.133379
-0.133923
-0.135095
-0.136295
-0.13676
-0.135853
-0.133283
-0.12912
-0.123743
-0.117655
-0.11136
-0.105344
-0.0998411
-0.095169
-0.0915784
-0.0892465
-0.0882232
-0.0883632
-0.0892691
-0.0903498
-0.0910455
-0.0908597
-0.0897167
-0.0876652
-0.0851099
-0.0824933
-0.0802048
-0.0784215
-0.0772332
-0.07637
-0.0755637
-0.0745321
-0.0730313
-0.0709857
-0.0684551
-0.0656709
-0.0629157
-0.0604307
-0.0584884
-0.0571573
-0.0564337
-0.0563433
-0.0568211
-0.0578702
-0.0595868
-0.0618722
-0.0646213
-0.0676785
-0.0707216
-0.0735668
-0.0760201
-0.0779799
-0.0794527
-0.0803806
-0.0806304
-0.0800861
-0.078532
-0.0757527
-0.0714687
-0.0653801
-0.0570108
-0.0458997
-0.031698
-0.0144695
0.00523965
0.026309
0.0471647
0.0662032
0.0821053
0.094181
0.102571
0.107919
0.111342
0.113891
0.116278
0.118876
0.121628
0.124235
0.126371
0.127739
0.128216
0.127817
0.126677
0.124924
0.122759
0.120328
0.117666
0.114898
0.112028
0.109184
0.106487
0.104069
0.102132
0.100827
0.10018
0.100047
0.100158
0.100071
0.09936
0.0976938
0.094976
0.0913136
0.0870968
0.0827398
0.0786194
0.0749675
0.0718279
0.0690678
0.0665039
0.0640459
0.0615776
0.0591893
0.0569441
0.0548091
0.0526625
0.0502461
0.0473414
0.0438034
0.0396859
0.0351845
0.0307105
0.0266785
0.0234603
0.0213361
0.0202002
0.0197175
0.0192809
0.0182863
0.016137
0.0126043
0.00787795
0.00261089
-0.00243977
-0.00653579
-0.00927476
-0.0105821
-0.0106916
-0.0100401
-0.00904697
-0.00799572
-0.00705056
-0.00618487
-0.00541343
-0.00470885
-0.00414944
-0.0037891
-0.00379914
-0.00418066
-0.00493543
-0.00597495
-0.0070997
-0.0082194
-0.00917248
-0.00998047
-0.0106362
-0.0111137
-0.0112194
-0.0108109
-0.00957335
-0.00729463
-0.00386008
0.000658424
0.00604692
0.0120871
0.0186241
0.0255832
0.0330032
0.0408933
0.0492744
0.0580279
0.066895
0.0755298
0.0834839
0.0903076
0.0956176
0.0990162
0.100236
0.0993474
0.0965652
0.0925348
0.0881867
0.0846425
0.0829461
0.0840482
0.0881941
0.0947456
0.102104
0.107913
0.109787
0.10593
0.0958219
0.0802214
0.0611162
0.0408958
0.0217191
0.00505947
-0.00848161
-0.0190058
-0.0268215
-0.0324175
-0.0362633
-0.0387862
-0.0405653
-0.0422239
-0.0441983
-0.0467667
-0.0499605
-0.0534683
-0.056809
-0.0596148
-0.0615826
-0.0624999
-0.0623965
-0.0613842
-0.0598854
-0.058527
-0.0582755
-0.0602868
-0.0658884
-0.0760277
-0.0913971
-0.112167
-0.137977
-0.167608
-0.198817
-0.228159
-0.251389
-0.263976
-0.261788
-0.241882
-0.202569
-0.142513
-0.0593
0.0507813
0.191723
0.364547
0.563197
0.770856
0.959744
1.09556
1.14655
1.09387
0.939513
0.708041
0.440649
0.183517
-0.0249908
-0.163824
-0.231974
-0.24463
-0.224875
-0.194715
-0.169011
-0.153756
-0.148301
-0.148748
-0.151145
-0.152868
-0.153181
-0.15235
-0.151086
-0.149814
-0.148863
-0.148392
-0.148497
-0.149077
-0.149854
-0.150431
-0.150438
-0.149551
-0.14767
-0.144996
-0.141831
-0.138479
-0.135198
-0.132271
-0.129783
-0.127771
-0.126185
-0.124895
-0.123623
-0.12204
-0.119771
-0.116541
-0.112153
-0.106725
-0.100544
-0.0941774
-0.0883121
-0.0836054
-0.0805315
-0.0792947
-0.0797687
-0.0815016
-0.0837959
-0.0859465
-0.0873756
-0.0876622
-0.0866757
-0.0845876
-0.0817765
-0.0786975
-0.0758016
-0.0735011
-0.0719711
-0.0712107
-0.0711202
-0.0715576
-0.0723251
-0.0732785
-0.0742862
-0.0751714
-0.0757277
-0.0758285
-0.0752732
-0.0740642
-0.0722847
-0.0701887
-0.0681814
-0.066706
-0.0661179
-0.0666339
-0.0681303
-0.0703451
-0.072804
-0.0750524
-0.0767433
-0.0776477
-0.077753
-0.0769834
-0.0751796
-0.0720249
-0.0669891
-0.0595189
-0.0492491
-0.0361647
-0.0206896
-0.00368507
0.0136662
0.0302168
0.0449822
0.0574484
0.0675557
0.0755555
0.0819767
0.0872451
0.0917569
0.0956344
0.0988101
0.101103
0.102252
0.102168
0.100819
0.0984211
0.095449
0.0924545
0.0900158
0.088515
0.0882397
0.0890075
0.0905205
0.0922925
0.0938161
0.0947062
0.094744
0.0939021
0.092313
0.090133
0.0875353
0.0846946
0.0816366
0.078475
0.0751095
0.071579
0.0678706
0.0640364
0.0602362
0.0565658
0.0531718
0.050164
0.0474903
0.0450881
0.0427618
0.0404515
0.0380668
0.0357535
0.0336191
0.0318932
0.0306119
0.0296655
0.0288007
0.027633
0.0257729
0.0230134
0.0193701
0.0150009
0.0103156
0.00567626
0.00156212
-0.00167828
-0.00382422
-0.00489148
-0.00513534
-0.00505211
-0.00520117
-0.00602222
-0.00759473
-0.00987336
-0.0124565
-0.0150015
-0.0173254
-0.0194514
-0.0215494
-0.0238723
-0.0264709
-0.0291846
-0.0317741
-0.0339263
-0.035441
-0.036314
-0.0367493
-0.0369065
-0.0369895
-0.0369757
-0.0367831
-0.0362221
-0.0351477
-0.0335634
-0.0316603
-0.0296735
-0.0277453
-0.025924
-0.0241632
-0.0222442
-0.0200997
-0.0178021
-0.0156037
-0.0138866
-0.0129228
-0.0127138
-0.0128823
-0.012777
-0.0116555
-0.0088687
-0.00427572
0.00190263
0.00911219
0.0166824
0.0241072
0.0310536
0.0374818
0.0435958
0.0496923
0.0561862
0.0633939
0.07152
0.0803782
0.0894132
0.0976731
0.104047
0.107644
0.108076
0.105617
0.101139
0.0959203
0.0913068
0.0883918
0.0878774
0.0900176
0.0944141
0.100043
0.105292
0.108082
0.10651
0.0992412
0.0859775
0.0677365
0.046433
0.0245596
0.00438534
-0.0125025
-0.0254736
-0.0347615
-0.0410644
-0.0452793
-0.0481052
-0.0500497
-0.0513777
-0.0522742
-0.0527976
-0.05307
-0.0533848
-0.0540089
-0.0552737
-0.0572995
-0.0600345
-0.0631356
-0.0661745
-0.0686592
-0.0705521
-0.0725016
-0.0758052
-0.0822758
-0.0937993
-0.111903
-0.137201
-0.168851
-0.204456
-0.240309
-0.271733
-0.293495
-0.300243
-0.286251
-0.244963
-0.169045
-0.0520252
0.108585
0.307352
0.527314
0.739691
0.908059
0.997258
0.984137
0.86632
0.66466
0.418232
0.173167
-0.0305487
-0.169196
-0.23912
-0.253357
-0.233853
-0.202415
-0.174728
-0.15774
-0.151554
-0.152602
-0.156611
-0.16042
-0.162454
-0.1624
-0.160509
-0.15722
-0.153086
-0.148665
-0.144539
-0.141165
-0.13889
-0.137773
-0.137736
-0.138399
-0.139321
-0.140055
-0.140201
-0.139622
-0.138353
-0.13673
-0.134956
-0.133287
-0.13163
-0.129854
-0.127653
-0.124885
-0.121664
-0.118338
-0.115381
-0.113192
-0.111911
-0.111276
-0.110677
-0.109433
-0.106942
-0.102985
-0.0977973
-0.0919637
-0.086253
-0.0814391
-0.0781488
-0.0766177
-0.0767573
-0.0781967
-0.0803198
-0.0824812
-0.084055
-0.0846599
-0.0841186
-0.0825215
-0.0801326
-0.077331
-0.0745326
-0.0721334
-0.0704198
-0.0696272
-0.069837
-0.0710232
-0.0729349
-0.0752909
-0.077579
-0.079263
-0.0798864
-0.079211
-0.0773221
-0.0746832
-0.0718534
-0.0695117
-0.0681384
-0.0679482
-0.068921
-0.0707682
-0.0732108
-0.0757895
-0.0781364
-0.0796578
-0.0798262
-0.0779584
-0.073439
-0.0658537
-0.0551463
-0.0416386
-0.0261358
-0.00974488
0.00620008
0.0206368
0.0328129
0.0425115
0.0501103
0.056345
0.0620745
0.0680076
0.0743821
0.080933
0.0870012
0.0918418
0.09482
0.0956851
0.0946745
0.0922614
0.0892443
0.0861879
0.0836031
0.0816925
0.0804215
0.079617
0.0789533
0.0780244
0.0764482
0.0740304
0.0707952
0.0670972
0.0635407
0.0607588
0.059091
0.0585219
0.0586131
0.0587168
0.0582383
0.0569676
0.0550806
0.0530639
0.0514966
0.0506356
0.050314
0.0501012
0.0493162
0.0475993
0.0447889
0.0411398
0.0371135
0.0331869
0.0296736
0.0266492
0.0239533
0.0211935
0.0179617
0.013908
0.00897665
0.00340552
-0.00220299
-0.00697309
-0.00995172
-0.0105109
-0.00848515
-0.00438214
0.000705411
0.00539414
0.00832982
0.00866543
0.00622774
0.00143722
-0.00480723
-0.0115637
-0.0180207
-0.0237091
-0.0284882
-0.0323811
-0.035409
-0.0375378
-0.0388247
-0.0393219
-0.0392184
-0.0386795
-0.0378801
-0.0368185
-0.0353277
-0.0333425
-0.0308618
-0.0281252
-0.0256747
-0.0241486
-0.0240439
-0.0255945
-0.0285708
-0.0324555
-0.0365312
-0.0400818
-0.0425683
-0.0438542
-0.0440588
-0.0435559
-0.0427675
-0.0420181
-0.0413968
-0.0407479
-0.0396815
-0.03788
-0.0351607
-0.0317217
-0.0280129
-0.0246838
-0.0223182
-0.0210763
-0.0208621
-0.0212178
-0.0214831
-0.0211278
-0.0197057
-0.0170653
-0.0132123
-0.00826983
-0.00250119
0.00381146
0.0104459
0.0173076
0.0245193
0.0323025
0.0408823
0.0502897
0.0601536
0.0697713
0.0781633
0.0843498
0.0876672
0.0880191
0.0859673
0.0827251
0.0795577
0.0774861
0.0769742
0.077835
0.0794012
0.0809891
0.0820735
0.0827621
0.0833306
0.0839517
0.084443
0.0839578
0.0811699
0.0748509
0.0642983
0.049581
0.0315852
0.0117313
-0.00836348
-0.0272175
-0.0436853
-0.0569743
-0.0667096
-0.0728493
-0.0757966
-0.0764785
-0.0759176
-0.0750531
-0.0745281
-0.0744732
-0.0746573
-0.0745784
-0.0738681
-0.0724692
-0.0705579
-0.068446
-0.0665565
-0.065262
-0.0650043
-0.0664795
-0.0708347
-0.0794346
-0.0935372
-0.113952
-0.140515
-0.171439
-0.202796
-0.228344
-0.239542
-0.22578
-0.175593
-0.0791235
0.068308
0.262081
0.485423
0.709158
0.895907
1.00848
1.02038
0.924472
0.736662
0.49236
0.23679
0.0124208
-0.15192
-0.246451
-0.279099
-0.269109
-0.238685
-0.205896
-0.180951
-0.166751
-0.161338
-0.160898
-0.161947
-0.162424
-0.161675
-0.159826
-0.157299
-0.154465
-0.151672
-0.1492
-0.147177
-0.145734
-0.144879
-0.144501
-0.14438
-0.144262
-0.143847
-0.142941
-0.141412
-0.139387
-0.13719
-0.135209
-0.133808
-0.133108
-0.133151
-0.133618
-0.134098
-0.134188
-0.133593
-0.132197
-0.130016
-0.127188
-0.12385
-0.120118
-0.116035
-0.11172
-0.1074
-0.103419
-0.100235
-0.0983031
-0.0977826
-0.0984955
-0.099929
-0.101306
-0.102028
-0.101696
-0.100322
-0.0981622
-0.0956778
-0.093339
-0.0912974
-0.0896537
-0.0883778
-0.0873716
-0.0865321
-0.085632
-0.0844123
-0.0826307
-0.0801487
-0.077133
-0.0741382
-0.0718615
-0.0710871
-0.072313
-0.0755233
-0.0802628
-0.085746
-0.0911624
-0.0959245
-0.0998918
-0.103196
-0.106267
-0.109441
-0.112882
-0.116379
-0.119268
-0.120637
-0.119308
-0.114167
-0.104469
-0.0900119
-0.0713158
-0.0495083
-0.0260999
-0.0027602
0.0190723
0.0384279
0.0548239
0.0683326
0.0794048
0.0885462
0.0963804
0.103297
0.109497
0.115012
0.119771
0.123555
0.126292
0.127873
0.128368
0.12791
0.126768
0.125352
0.124038
0.123207
0.123042
0.123645
0.124892
0.126513
0.128115
0.129362
0.129955
0.129712
0.128645
0.126871
0.12455
0.121911
0.119097
0.116181
0.113223
0.110209
0.107127
0.104
0.100837
0.0978011
0.094939
0.0925282
0.0907031
0.0895459
0.0890246
0.0889378
0.0889779
0.0887226
0.0878537
0.0861582
0.0836383
0.0804994
0.0770982
0.0737477
0.0706704
0.0679256
0.0654817
0.0631714
0.0608332
0.058362
0.0557871
0.0531468
0.050503
0.0479329
0.0455614
0.0434949
0.0419605
0.0410681
0.0408815
0.0413127
0.0421382
0.0429949
0.0435199
0.043483
0.0428053
0.0416233
0.0402092
0.0387742
0.0374407
0.0361598
0.0347618
0.0330433
0.030816
0.0280647
0.0248751
0.0215001
0.0181107
0.0150074
0.0124827
0.0107174
0.00978973
0.00963626
0.00997398
0.0104596
0.0107318
0.010628
0.0101336
0.00945854
0.00900912
0.00914494
0.0100982
0.0119223
0.0144022
0.017181
0.0197896
0.0218504
0.0230583
0.0233195
0.022712
0.0214258
0.0198533
0.0184188
0.0177108
0.0182298
0.0203332
0.0241819
0.0296162
0.0362298
0.0435144
0.0508637
0.0578792
0.0642473
0.0698515
0.0748506
0.0795188
0.0843139
0.0897068
0.0959591
0.103026
0.110474
0.117546
0.123228
0.126696
0.12744
0.125465
0.121439
0.116487
0.111922
0.108977
0.108346
0.109806
0.112205
0.113655
0.112084
0.105908
0.0946108
0.0787842
0.0600797
0.0405592
0.0220775
0.00594935
-0.00726037
-0.0175338
-0.0250925
-0.030209
-0.0331237
-0.0342986
-0.0343018
-0.0340497
-0.0343856
-0.035908
-0.038787
-0.0426866
-0.0469229
-0.050826
-0.0539427
-0.0560933
-0.0574689
-0.0583336
-0.0588297
-0.0589607
-0.0586571
-0.0577496
-0.0565167
-0.0557964
-0.0571385
-0.0626513
-0.0743503
-0.0936806
-0.120638
-0.152827
-0.185034
-0.209329
-0.2159
-0.194389
-0.135667
-0.033707
0.112749
0.29915
0.515099
0.74515
0.970412
1.17024
1.32438
1.41499
1.42881
1.35953
1.20996
0.993098
0.73149
0.454553
0.193479
-0.0248439
-0.183432
-0.277935
-0.315987
-0.313518
-0.289289
-0.259741
-0.235667
-0.221444
-0.216566
-0.217952
-0.222198
-0.226836
-0.230624
-0.233182
-0.234609
-0.235069
-0.234695
-0.233724
-0.232409
-0.230994
-0.229699
-0.228676
-0.227778
-0.22691
-0.225925
-0.224678
-0.223092
-0.221103
-0.218729
-0.215964
-0.212936
-0.209802
-0.206722
-0.203923
-0.201563
-0.19966
-0.198116
-0.196772
-0.195438
-0.193959
-0.192295
-0.190479
-0.18862
-0.186736
-0.184933
-0.183175
-0.181472
-0.179824
-0.17834
-0.177117
-0.176271
-0.175867
-0.175818
-0.175869
-0.175684
-0.17496
-0.173494
-0.171226
-0.168406
-0.165333
-0.162453
-0.160145
-0.158693
-0.158184
-0.158502
-0.159321
-0.160191
-0.160727
-0.160663
-0.160035
-0.159014
-0.157968
-0.157248
-0.157087
-0.157546
-0.15851
-0.159712
-0.160795
-0.161376
-0.161122
-0.159666
-0.156662
-0.151783
-0.144779
-0.13549
-0.123913
-0.110095
-0.0943219
-0.0769883
-0.0587153
-0.0401933
-0.0222522
-0.00565707
0.0089077
0.0210472
0.0307005
0.0381133
0.0437867
0.0483134
0.0522247
0.055895
0.059594
0.063407
0.0672888
0.0712431
0.075139
0.0789132
0.0825281
0.0859045
0.0891095
0.0922103
0.095334
0.0985799
0.101961
0.10527
0.108167
0.110155
0.110836
0.109928
0.10753
0.103986
0.0998376
0.0956582
0.091922
0.0888382
0.0863542
0.0842662
0.0822534
0.0800406
0.0775613
0.0748059
0.0720107
0.0694596
0.0673858
0.0660649
0.0655034
0.0655575
0.0659639
0.0663283
0.0662492
0.0653785
0.0635091
0.0607413
0.0572791
0.0534481
0.0495169
0.0455851
0.0415896
0.0374782
0.0331361
0.0286076
0.0240909
0.0197987
0.0159588
0.0127557
0.0102285
0.00839906
0.0071781
0.00642707
0.0058554
0.00502618
0.00358014
0.00127346
-0.00190488
-0.00566091
-0.00958253
-0.0132792
-0.0164174
-0.0189162
-0.0207982
-0.0221015
-0.0228601
-0.0230505
-0.0226964
-0.0219852
-0.0212678
-0.0209743
-0.0214854
-0.022883
-0.0249582
-0.0273153
-0.0294276
-0.0309693
-0.0317392
-0.0318457
-0.0314534
-0.030772
-0.0300769
-0.0294427
-0.0289147
-0.0285347
-0.0282992
-0.0281428
-0.0281074
-0.0281474
-0.0282744
-0.0283516
-0.0282058
-0.027542
-0.026089
-0.0237284
-0.0204571
-0.0165093
-0.0120462
-0.0072379
-0.00193074
0.00403259
0.0108411
0.0185303
0.0268119
0.0351608
0.042934
0.0494956
0.0547302
0.0588284
0.062294
0.0658959
0.0703075
0.0758998
0.082632
0.0898736
0.0967896
0.102287
0.105516
0.106011
0.10392
0.100052
0.095701
0.0923259
0.0912131
0.0932193
0.0981454
0.105013
0.111896
0.116527
0.116813
0.111448
0.100287
0.0845513
0.0661673
0.0473948
0.0301057
0.0152706
0.00294366
-0.00745412
-0.0165739
-0.0247658
-0.0320171
-0.0379949
-0.04242
-0.0452407
-0.0467738
-0.0476256
-0.0485867
-0.0501972
-0.0525303
-0.055393
-0.0580985
-0.0600076
-0.0606091
-0.0597484
-0.0576127
-0.054569
-0.0511398
-0.0477966
-0.0449565
-0.0432057
-0.0436317
-0.0478069
-0.0576223
-0.0746637
-0.0996939
-0.131915
-0.168415
-0.203861
-0.230657
-0.23955
-0.220223
-0.16242
-0.0578996
0.0966235
0.296007
0.524165
0.753292
0.947449
1.06983
1.09272
1.00657
0.824516
0.58014
0.318628
0.0841295
-0.091852
-0.196845
-0.237236
-0.232054
-0.204281
-0.173132
-0.149782
-0.137279
-0.133474
-0.134496
-0.137097
-0.139641
-0.142017
-0.144582
-0.147538
-0.150706
-0.153569
-0.155598
-0.156572
-0.156478
-0.155501
-0.1539
-0.151992
-0.149985
-0.147944
-0.145837
-0.143511
-0.140753
-0.137365
-0.133234
-0.12848
-0.123384
-0.118358
-0.113877
-0.110261
-0.107595
-0.105729
-0.10435
-0.103112
-0.101844
-0.10056
-0.0993172
-0.0983139
-0.0976325
-0.0971319
-0.0965621
-0.095601
-0.0940878
-0.0920162
-0.0895015
-0.0869119
-0.0845988
-0.0828799
-0.0819249
-0.0817695
-0.0821721
-0.0828937
-0.0834949
-0.0836302
-0.0829328
-0.081307
-0.0787441
-0.0754628
-0.0718939
-0.0684126
-0.0654547
-0.0632699
-0.0619946
-0.0615376
-0.0618053
-0.0626872
-0.0640079
-0.0656526
-0.0674049
-0.06902
-0.0703355
-0.0712165
-0.071734
-0.072112
-0.072532
-0.0730606
-0.0736355
-0.0738286
-0.0731178
-0.0709311
-0.0668076
-0.0602623
-0.0511477
-0.0394883
-0.0255953
-0.0102471
0.00557131
0.0206655
0.0339766
0.0447265
0.052776
0.0585203
0.0627105
0.0662935
0.0699519
0.0740648
0.0787081
0.0835827
0.0883283
0.0926704
0.0962387
0.0989162
0.100638
0.101496
0.101699
0.101567
0.101377
0.101153
0.10081
0.100049
0.0985563
0.0962486
0.093258
0.0900565
0.0871215
0.0848984
0.0836335
0.083265
0.0836067
0.0843534
0.0852309
0.0860628
0.0865844
0.0866214
0.0859169
0.0842512
0.0815811
0.0779097
0.0735418
0.0687991
0.0640308
0.0595306
0.0554117
0.0516592
0.0481807
0.0448631
0.0416055
0.0383368
0.0350978
0.0318917
0.0288513
0.0261342
0.0238109
0.0220048
0.0206124
0.0194347
0.0183425
0.0170612
0.0154231
0.013348
0.0108786
0.0080799
0.00508538
0.00205935
-0.000982553
-0.00400251
-0.00712922
-0.010509
-0.0141885
-0.0180972
-0.0220619
-0.0256746
-0.0286213
-0.0306955
-0.0318942
-0.0324632
-0.0327401
-0.0330064
-0.0333771
-0.0338611
-0.034213
-0.0342199
-0.0338895
-0.0333075
-0.0327846
-0.0326822
-0.0332193
-0.0343967
-0.0359873
-0.0375659
-0.0386435
-0.0389452
-0.0383979
-0.0372556
-0.0359976
-0.0351508
-0.0349468
-0.0354591
-0.0362047
-0.0364905
-0.0356563
-0.0331958
-0.0291371
-0.0238847
-0.0182124
-0.0129232
-0.00870668
-0.00589795
-0.00454956
-0.00452092
-0.00549512
-0.00712902
-0.0091904
-0.0114205
-0.0136318
-0.0156236
-0.0171686
-0.0179115
-0.0174621
-0.0153346
-0.0112074
-0.00499313
0.00297684
0.0120683
0.0214209
0.0302042
0.0379178
0.0443856
0.0500139
0.055301
0.0609231
0.0673173
0.074649
0.0826476
0.0908013
0.0983127
0.104421
0.108533
0.11045
0.110361
0.108856
0.106684
0.10449
0.102701
0.101672
0.101422
0.101915
0.102864
0.103554
0.103064
0.100232
0.0940782
0.0841033
0.0705709
0.0543039
0.0365925
0.0187322
0.00179845
-0.0134256
-0.026428
-0.0368404
-0.044392
-0.0490629
-0.0511718
-0.051352
-0.0505027
-0.0494477
-0.0488274
-0.0488983
-0.0495776
-0.0506912
-0.0519861
-0.0534336
-0.0551518
-0.057191
-0.059591
-0.0621705
-0.0644975
-0.0660678
-0.0664318
-0.0654722
-0.0634069
-0.0608845
-0.058879
-0.0586781
-0.0616768
-0.0693249
-0.0828125
-0.102878
-0.129441
-0.161006
-0.194097
-0.223068
-0.240201
-0.236095
-0.200499
-0.124124
-0.00113246
0.167587
0.371456
0.588736
0.788154
0.934451
0.996996
0.958884
0.823332
0.6144
0.371071
0.136422
-0.053987
-0.180562
-0.242093
-0.252126
-0.231566
-0.20067
-0.173568
-0.156548
-0.149631
-0.149614
-0.152791
-0.156528
-0.159692
-0.162021
-0.163536
-0.164029
-0.163072
-0.160181
-0.155007
-0.147729
-0.138981
-0.129816
-0.121575
-0.115492
-0.112459
-0.112736
-0.11584
-0.120733
-0.12604
-0.130492
-0.133191
-0.133846
-0.132639
-0.130064
-0.126724
-0.123048
-0.119282
-0.115442
-0.111542
-0.107726
-0.104318
-0.101727
-0.100164
-0.0996375
-0.0999482
-0.100558
-0.101093
-0.101384
-0.101432
-0.101538
-0.101883
-0.102523
-0.103231
-0.103607
-0.103318
-0.102246
-0.100453
-0.0982114
-0.09583
-0.0936089
-0.0916872
-0.0902322
-0.0892955
-0.0888658
-0.088791
-0.088848
-0.0886652
-0.0878502
-0.0862657
-0.0839438
-0.0811318
-0.0783591
-0.076114
-0.0747858
-0.0747811
-0.0761835
-0.0790398
-0.0831889
-0.0884182
-0.0943687
-0.10063
-0.106737
-0.112244
-0.116746
-0.119778
-0.12093
-0.119759
-0.115901
-0.109163
-0.0996289
-0.0876608
-0.0738274
-0.0587754
-0.0431224
-0.0273657
-0.0119509
0.00265123
0.0160547
0.0279491
0.0382512
0.0471543
0.0551231
0.0626896
0.0702065
0.0777152
0.0848525
0.0909966
0.0955796
0.0982438
0.0990167
0.0981901
0.0963831
0.0941192
0.0917862
0.0895863
0.0875417
0.0855792
0.0837505
0.0822179
0.0812436
0.0810632
0.0818033
0.0833861
0.0855484
0.0877958
0.0896014
0.0905149
0.0902252
0.0885093
0.0854451
0.0811686
0.075951
0.0701285
0.0641793
0.0585576
0.0538012
0.0503955
0.0484679
0.0478457
0.0480808
0.0485316
0.0486441
0.0481213
0.0469448
0.0453142
0.0433569
0.0412349
0.0388481
0.0362188
0.033484
0.0310709
0.0294554
0.0290123
0.0295802
0.0307336
0.0316083
0.03158
0.0303175
0.0281623
0.0257505
0.0238035
0.0225571
0.0216801
0.0204181
0.0179318
0.0137596
0.00808544
0.00161276
-0.004694
-0.0100279
-0.0140136
-0.0166555
-0.0182995
-0.0192414
-0.019668
-0.0195273
-0.0187213
-0.0172196
-0.0152725
-0.0131979
-0.0115554
-0.0106581
-0.0106532
-0.0113917
-0.0125438
-0.0138459
-0.0150728
-0.0162576
-0.017612
-0.0192785
-0.0212621
-0.0233426
-0.0251177
-0.0261616
-0.0262508
-0.0252846
-0.0235229
-0.0213241
-0.0190887
-0.0172261
-0.0160241
-0.0156248
-0.0158269
-0.0162287
-0.0162289
-0.0152045
-0.0126019
-0.00820814
-0.00211817
0.00529437
0.013475
0.021925
0.0301872
0.0380586
0.04544
0.0522414
0.058432
0.0639401
0.0686002
0.07223
0.0747087
0.0758805
0.0758689
0.0749739
0.0734986
0.0718349
0.0700391
0.0679308
0.0650135
0.0609061
0.0556358
0.0499455
0.0451598
0.0428739
0.0442916
0.0496183
0.0577986
0.0667438
0.073798
0.0767011
0.0742019
0.0663213
0.0540989
0.0391775
0.0232638
0.0076795
-0.00671518
-0.019476
-0.0304004
-0.0393533
-0.0462383
-0.0512113
-0.0545923
-0.0569484
-0.0587578
-0.0603943
-0.061855
-0.0630065
-0.0634955
-0.0631475
-0.0620589
-0.0604245
-0.0586396
-0.0569065
-0.0551806
-0.0532754
-0.0510317
-0.0485805
-0.0466622
-0.0466999
-0.0506573
-0.060547
-0.0779448
-0.10321
-0.134946
-0.169668
-0.201614
-0.223183
-0.225442
-0.198773
-0.133894
-0.0237988
0.133446
0.331589
0.553442
0.770883
0.948518
1.05137
1.05478
0.952861
0.76196
0.517392
0.26381
0.0427097
-0.118161
-0.210051
-0.241644
-0.232433
-0.204125
-0.173943
-0.151384
-0.138648
-0.133674
-0.132875
-0.133305
-0.133232
-0.132214
-0.130469
-0.128343
-0.126249
-0.124461
-0.123217
-0.12255
-0.122248
-0.121975
-0.121401
-0.120206
-0.118207
-0.115398
-0.111889
-0.107978
-0.104021
-0.10046
-0.0976928
-0.0960597
-0.0955586
-0.0959359
-0.0967546
-0.0975096
-0.0977622
-0.0972136
-0.0958754
-0.0938897
-0.0914225
-0.088718
-0.0859223
-0.0832386
-0.0808134
-0.0787162
-0.0770661
-0.0758795
-0.0752145
-0.0750633
-0.0753472
-0.0759476
-0.0766133
-0.076991
-0.0767533
-0.0756769
-0.073791
-0.0712915
-0.0686014
-0.0660869
-0.0639717
-0.0621819
-0.0606772
-0.0592455
-0.0579052
-0.0568593
-0.0565269
-0.0572799
-0.0593628
-0.0627533
-0.0670702
-0.0718078
-0.0765238
-0.0809159
-0.0849368
-0.088734
-0.092533
-0.0964107
-0.100353
-0.10421
-0.107785
-0.110893
-0.113385
-0.115116
-0.11581
-0.115053
-0.112266
-0.106851
-0.0982599
-0.0863404
-0.0713188
-0.0539236
-0.0351923
-0.0164133
0.00126715
0.0169791
0.0303413
0.0413753
0.0505482
0.0583508
0.0653377
0.0718121
0.0778641
0.0834004
0.0882661
0.0924703
0.096151
0.0994957
0.10263
0.105567
0.108121
0.110074
0.111301
0.11182
0.111814
0.111568
0.111226
0.110894
0.11044
0.109758
0.108771
0.107537
0.106096
0.104488
0.102631
0.100392
0.0975868
0.0941878
0.0902607
0.0859869
0.0816106
0.0772603
0.073014
0.0689409
0.0650805
0.0616007
0.0586922
0.0566439
0.0555245
0.0552015
0.0553315
0.0553372
0.0547694
0.0532313
0.0506048
0.0470251
0.0427486
0.0380994
0.0334819
0.0292073
0.0254821
0.0225148
0.0202743
0.0187161
0.0176103
0.0167025
0.015732
0.0145939
0.0132277
0.0117332
0.0102659
0.0088733
0.00762016
0.00648064
0.00548149
0.00467522
0.00421561
0.00418925
0.0045465
0.00501918
0.00522376
0.00467036
0.00308896
0.000559156
-0.00256929
-0.00575507
-0.00843318
-0.0103614
-0.0114951
-0.0122044
-0.0128652
-0.0137841
-0.0150898
-0.0166298
-0.0179753
-0.0187516
-0.018702
-0.017818
-0.0162991
-0.0145347
-0.0128862
-0.011618
-0.0108555
-0.0105463
-0.0106756
-0.0111938
-0.0120461
-0.0130688
-0.0138966
-0.0139867
-0.0127373
-0.00958983
-0.00421547
0.00333792
0.0127266
0.023342
0.0344806
0.0455175
0.0560324
0.0658905
0.0751062
0.0837541
0.091902
0.0994207
0.105864
0.110535
0.112719
0.111932
0.108232
0.102255
0.0951524
0.0881907
0.0822212
0.0776436
0.0741988
0.0715774
0.0695615
0.0685268
0.0691425
0.0720846
0.0772937
0.0836807
0.0892533
0.0916568
0.0890865
0.0808765
0.0677345
0.0515111
0.0344043
0.0183616
0.00453275
-0.00669434
-0.0155763
-0.0225139
-0.0278564
-0.0318116
-0.0345499
-0.0364387
-0.0379197
-0.0395743
-0.0416866
-0.0443883
-0.0474054
-0.050286
-0.0524683
-0.0535997
-0.0535093
-0.0522911
-0.050343
-0.0482818
-0.0469284
-0.0475757
-0.0518074
-0.0614974
-0.0782726
-0.103013
-0.134947
-0.170794
-0.204259
-0.226229
-0.225763
-0.191405
-0.113217
0.0149419
0.193053
0.412959
0.65699
0.898589
1.10504
1.24284
1.28508
1.21888
1.05013
0.803872
0.519252
0.240119
0.00445126
-0.16393
-0.259136
-0.291234
-0.280254
-0.248481
-0.213922
-0.18716
-0.171475
-0.165133
-0.164272
-0.165481
-0.166817
-0.16775
-0.168559
-0.169694
-0.171204
-0.173015
-0.174804
-0.176242
-0.177137
-0.177332
-0.17675
-0.175397
-0.173349
-0.170741
-0.167836
-0.164939
-0.162218
-0.159693
-0.15719
-0.154423
-0.15118
-0.147449
-0.143462
-0.139671
-0.136611
-0.134576
-0.133602
-0.133385
-0.133503
-0.133457
-0.132906
-0.131701
-0.129953
-0.127963
-0.126058
-0.124594
-0.123804
-0.123715
-0.124109
-0.124677
-0.125046
-0.124884
-0.123971
-0.122323
-0.120077
-0.117395
-0.114517
-0.111607
-0.108793
-0.106297
-0.104333
-0.10311
-0.102761
-0.103297
-0.104467
-0.105822
-0.106962
-0.10757
-0.107616
-0.107291
-0.106883
-0.106618
-0.106616
-0.106738
-0.106893
-0.106934
-0.106881
-0.106834
-0.107015
-0.107356
-0.107654
-0.107389
-0.105781
-0.102029
-0.0954963
-0.0857632
-0.0728285
-0.0571298
-0.0394133
-0.0206358
-0.00181363
0.0160378
0.0321539
0.0459829
0.0572999
0.0661692
0.0729339
0.0780261
0.0819807
0.0852854
0.0884695
0.091758
0.0952605
0.0988367
0.10216
0.104708
0.106093
0.106042
0.104594
0.102097
0.0990806
0.0960946
0.0935634
0.0916164
0.0901187
0.0887475
0.0871624
0.0851382
0.0826665
0.0799232
0.0771731
0.0747476
0.0728008
0.0713718
0.0704665
0.0699229
0.06952
0.069129
0.0685342
0.067526
0.0660061
0.0639859
0.0615971
0.0590524
0.0565843
0.0543518
0.0523215
0.0504644
0.048526
0.046358
0.04397
0.0414628
0.0390905
0.0370761
0.0354409
0.0340851
0.0327474
0.031076
0.0289015
0.0262585
0.0232814
0.020301
0.0175075
0.0148566
0.0121591
0.00913772
0.00557411
0.00153072
-0.00271647
-0.00667148
-0.00981535
-0.0118463
-0.0126852
-0.0127357
-0.0124228
-0.0121952
-0.0123691
-0.0129325
-0.0136956
-0.0143532
-0.0146527
-0.0145471
-0.0142026
-0.0138762
-0.0138345
-0.0142114
-0.0149362
-0.0158187
-0.0165978
-0.0169742
-0.0168446
-0.0162274
-0.0152718
-0.0142509
-0.0133229
-0.0125464
-0.0117719
-0.0107588
-0.00927246
-0.00709795
-0.0042825
-0.00091861
0.00287493
0.00707205
0.0117297
0.0170319
0.0231217
0.0298764
0.0369531
0.0439358
0.0503927
0.056173
0.0614298
0.0664553
0.0715718
0.0767763
0.0818553
0.0863102
0.0896914
0.0916369
0.0919632
0.0907381
0.0881188
0.0844379
0.0802194
0.0761696
0.0731642
0.0720502
0.0731698
0.0760633
0.0793678
0.0810817
0.079094
0.0718849
0.0590796
0.0415117
0.0211877
0.00056135
-0.0180091
-0.0328282
-0.0430889
-0.0489628
-0.0512503
-0.051086
-0.0497322
-0.0482192
-0.0472789
-0.0472344
-0.0479942
-0.0492329
-0.0505717
-0.0516985
-0.052358
-0.0525419
-0.0523067
-0.0517024
-0.0507671
-0.0496033
-0.0483842
-0.0473706
-0.0469908
-0.0479776
-0.0516104
-0.0594643
-0.0732677
-0.0943666
-0.123205
-0.158073
-0.194364
-0.224326
-0.237351
-0.221141
-0.163388
-0.0548686
0.106991
0.314753
0.548967
0.778677
0.966078
1.07477
1.07981
0.975808
0.780279
0.529874
0.270541
0.0448136
-0.119016
-0.212251
-0.244098
-0.234862
-0.207218
-0.179109
-0.160097
-0.152186
-0.152774
-0.157811
-0.163828
-0.16864
-0.171349
-0.171745
-0.169906
-0.166122
-0.161045
-0.155512
-0.150332
-0.146043
-0.142962
-0.141009
-0.139889
-0.139277
-0.139025
-0.139043
-0.139422
-0.14022
-0.141348
-0.142578
-0.143522
-0.143693
-0.142879
-0.14104
-0.138399
-0.135343
-0.132313
-0.129616
-0.127404
-0.125556
-0.123866
-0.122167
-0.120267
-0.118026
-0.115431
-0.11261
-0.109601
-0.106483
-0.103485
-0.100765
-0.0985143
-0.0969136
-0.0960716
-0.0959733
-0.0964559
-0.0972712
-0.0981231
-0.0988231
-0.0992425
-0.0992713
-0.098984
-0.0984758
-0.0978252
-0.0971743
-0.0965655
-0.0961172
-0.0958065
-0.0955224
-0.0951734
-0.0946772
-0.0940703
-0.0934183
-0.0929542
-0.0928616
-0.0932133
-0.0939557
-0.0948279
-0.0956189
-0.0961481
-0.0963135
-0.0962748
-0.0961435
-0.0960144
-0.095731
-0.0948374
-0.09263
-0.0882356
-0.0807771
-0.0696951
-0.0550388
-0.0375268
-0.0185659
0.000124116
0.016869
0.0305443
0.040807
0.0481081
0.0534234
0.0577879
0.061984
0.0664469
0.0711328
0.0757488
0.079951
0.0833931
0.0857184
0.0867358
0.086387
0.0848048
0.0823793
0.079686
0.0772859
0.0757
0.075124
0.0753115
0.0758121
0.0759315
0.0752322
0.0734434
0.0707354
0.0674832
0.0641532
0.0611167
0.0584286
0.0559955
0.0535322
0.0508053
0.0477967
0.0446395
0.0416151
0.0390122
0.0369853
0.0355162
0.0344209
0.0334585
0.0323989
0.0311839
0.0299
0.028655
0.02757
0.0266081
0.0254848
0.0238223
0.0212669
0.0175498
0.0126851
0.00687217
0.000523405
-0.00582957
-0.0117487
-0.0169198
-0.0211595
-0.0244564
-0.0268021
-0.0282689
-0.0289471
-0.0289939
-0.0285864
-0.0279197
-0.0272201
-0.0266716
-0.0263485
-0.0263528
-0.0266806
-0.0272364
-0.0280086
-0.0289286
-0.0299726
-0.0310833
-0.0322847
-0.0335785
-0.0350384
-0.0365849
-0.0380988
-0.0394013
-0.0402378
-0.0404357
-0.0400024
-0.0390135
-0.0377774
-0.0366054
-0.0356589
-0.034919
-0.0341575
-0.0330963
-0.0315496
-0.0296523
-0.0278987
-0.0269124
-0.0272817
-0.0292529
-0.0326099
-0.036678
-0.0406214
-0.0435949
-0.0450519
-0.0446159
-0.0420959
-0.0374229
-0.0306049
-0.0218207
-0.0115936
-0.000661989
0.0100675
0.0198106
0.0282404
0.0355214
0.0422736
0.0492448
0.0570408
0.0656676
0.0745378
0.0826018
0.0886582
0.0918201
0.0917569
0.0887899
0.0837877
0.0776009
0.0710798
0.0646478
0.0585693
0.0530856
0.0486037
0.0456901
0.0447594
0.0456239
0.0472581
0.0479103
0.0457055
0.0392366
0.0281561
0.0135016
-0.00269786
-0.0180669
-0.0307701
-0.0398288
-0.0452614
-0.0478871
-0.0487925
-0.0491064
-0.0496073
-0.0508299
-0.0530129
-0.0560446
-0.0597345
-0.0636723
-0.0674722
-0.07081
-0.0733948
-0.0750674
-0.0759014
-0.0759363
-0.0752743
-0.0741089
-0.0725299
-0.0706598
-0.0685855
-0.0664151
-0.0644412
-0.0631718
-0.0637028
-0.0674217
-0.0761079
-0.0913033
-0.113939
-0.14358
-0.177751
-0.211423
-0.23707
-0.24509
-0.224427
-0.164455
-0.0574537
0.098234
0.294974
0.513744
0.725144
0.893601
0.985773
0.97984
0.872749
0.68284
0.445547
0.20387
-0.00344137
-0.151531
-0.233573
-0.259007
-0.246898
-0.218012
-0.18843
-0.166688
-0.154579
-0.149852
-0.148981
-0.14913
-0.14899
-0.148492
-0.148031
-0.147954
-0.148435
-0.149323
-0.150441
-0.151456
-0.151987
-0.151741
-0.150393
-0.147786
-0.144006
-0.139355
-0.134328
-0.129571
-0.125694
-0.123153
-0.121942
-0.121692
-0.121749
-0.121376
-0.120031
-0.117514
-0.114051
-0.110039
-0.106052
-0.102492
-0.0995099
-0.0971223
-0.0952071
-0.0937518
-0.0928001
-0.092366
-0.0924095
-0.0927069
-0.0928982
-0.0927464
-0.0921532
-0.0913053
-0.0906359
-0.0905479
-0.0912523
-0.0924588
-0.0936016
-0.0939454
-0.0928954
-0.0903963
-0.0869205
-0.0832983
-0.0804754
-0.0791411
-0.0794837
-0.0811896
-0.0836671
-0.0861176
-0.0879388
-0.0887512
-0.0884334
-0.0871028
-0.0850915
-0.0827393
-0.0805099
-0.0787842
-0.077795
-0.0776606
-0.0783496
-0.0798787
-0.0822672
-0.0857089
-0.0904167
-0.0963939
-0.103315
-0.11032
-0.116064
-0.119121
-0.118169
-0.112572
-0.102501
-0.0889827
-0.0736566
-0.0584681
-0.0451072
-0.0347759
-0.0278014
-0.0237328
-0.021304
-0.0190735
-0.015627
-0.0100102
-0.00185694
0.00862979
0.0207375
0.0335836
0.0462903
0.0580624
0.0683548
0.0768504
0.083541
0.0886178
0.0924166
0.0953178
0.0974549
0.098765
0.0990553
0.0980834
0.0959582
0.0930835
0.0902171
0.0882553
0.087713
0.0886631
0.0905426
0.0925405
0.0938737
0.0943048
0.0941161
0.093957
0.0945843
0.0963547
0.0990356
0.101984
0.104343
0.105453
0.104985
0.103107
0.100188
0.0966609
0.0929538
0.0892483
0.0855758
0.0819826
0.0784366
0.0750463
0.0718562
0.0688484
0.0660002
0.0632241
0.0603792
0.0574308
0.0544639
0.0515909
0.0490309
0.0469454
0.0453109
0.0440005
0.0427449
0.0411719
0.0391206
0.0365224
0.033571
0.0305772
0.0279462
0.026011
0.02482
0.0242258
0.0240116
0.0238946
0.0236301
0.0230559
0.02207
0.0205637
0.018545
0.0160441
0.0133071
0.010667
0.00849473
0.00703906
0.00625265
0.00586732
0.00550694
0.00472364
0.00334527
0.00157568
-0.000214266
-0.00149478
-0.00181815
-0.000963442
0.000930243
0.00343313
0.00603381
0.00831806
0.00992341
0.010801
0.0110992
0.0110163
0.0106814
0.0102356
0.00959322
0.0087985
0.00789712
0.00702318
0.00640229
0.0063174
0.00707599
0.00889789
0.0119293
0.0162933
0.021935
0.0286792
0.0362047
0.0440236
0.051605
0.0585211
0.0645517
0.0697416
0.0743153
0.078585
0.0828611
0.0871403
0.0911444
0.0944477
0.096664
0.0975339
0.0971059
0.0956537
0.0935931
0.0913516
0.0891907
0.0872227
0.0855345
0.0842882
0.0837118
0.0840218
0.0850172
0.0859602
0.0855728
0.0822941
0.0749219
0.0629508
0.0469377
0.0284991
0.00980246
-0.0069772
-0.0202714
-0.0294083
-0.0346152
-0.0367414
-0.0369217
-0.0362986
-0.0356261
-0.0352324
-0.0350681
-0.0348636
-0.034354
-0.0333991
-0.0321229
-0.030699
-0.0293746
-0.0283266
-0.0275488
-0.0269188
-0.02626
-0.0253553
-0.024292
-0.0232983
-0.0228143
-0.0238179
-0.0275132
-0.0353499
-0.048797
-0.0687984
-0.0954846
-0.1275
-0.16141
-0.19136
-0.209493
-0.206444
-0.172293
-0.0979845
0.0223116
0.188563
0.392431
0.615445
0.82968
1.00143
1.09835
1.09796
0.995104
0.805144
0.561331
0.306214
0.0802515
-0.0880676
-0.188008
-0.226086
-0.220344
-0.192672
-0.161408
-0.137471
-0.124303
-0.120167
-0.121138
-0.123627
-0.125438
-0.126023
-0.125674
-0.124923
-0.124191
-0.123767
-0.123684
-0.123807
-0.123804
-0.123417
-0.122363
-0.120551
-0.118056
-0.115136
-0.112045
-0.10902
-0.106232
-0.103726
-0.101628
-0.0999102
-0.0986058
-0.0977385
-0.0971731
-0.0967716
-0.0964294
-0.0959776
-0.0953596
-0.0945546
-0.0936251
-0.0925902
-0.0915609
-0.090569
-0.0896601
-0.0888513
-0.0882478
-0.087868
-0.0876931
-0.0875782
-0.0872899
-0.0865694
-0.0851787
-0.0831295
-0.0806283
-0.0781433
-0.0761362
-0.0750401
-0.0750434
-0.075992
-0.0774752
-0.0789981
-0.0800438
-0.0803234
-0.0797331
-0.0784509
-0.0766797
-0.0747365
-0.0728209
-0.0710984
-0.0696695
-0.0686234
-0.0680553
-0.0681199
-0.0689783
-0.0707637
-0.07357
-0.0772826
-0.0817126
-0.0864448
-0.0911004
-0.0952947
-0.0988445
-0.101658
-0.103565
-0.104284
-0.103311
-0.0999881
-0.0937797
-0.084551
-0.0727769
-0.0594948
-0.0461636
-0.0342179
-0.0246486
-0.017833
-0.0134294
-0.0106004
-0.00831053
-0.0055734
-0.00176401
0.00336684
0.00973742
0.0170254
0.0248785
0.0329317
0.041002
0.048898
0.0565554
0.0638699
0.0709084
0.0776733
0.0842614
0.0907299
0.0970014
0.102855
0.107865
0.111601
0.113736
0.1142
0.113145
0.111006
0.108287
0.105398
0.102582
0.0998267
0.0971929
0.0947258
0.0924973
0.0905507
0.0888596
0.0872556
0.0854898
0.0833473
0.0807857
0.0779838
0.0751463
0.0725955
0.0705023
0.0689325
0.0679076
0.0673457
0.0672793
0.0676959
0.0684241
0.0691946
0.0695181
0.0688701
0.066787
0.0630486
0.0577872
0.0515953
0.0451815
0.0392897
0.0344239
0.0308217
0.0283986
0.0269489
0.0262113
0.0259974
0.0261191
0.0263035
0.0261983
0.0254426
0.023735
0.0209917
0.0174349
0.0135702
0.00992063
0.00692191
0.0049054
0.00397781
0.00398665
0.00471992
0.00579524
0.00682298
0.00740241
0.00721289
0.00609148
0.00399539
0.00108676
-0.00228596
-0.00577987
-0.00903614
-0.0117801
-0.0138931
-0.0153821
-0.016347
-0.0169244
-0.0173151
-0.0176336
-0.0179155
-0.0181508
-0.0183165
-0.0183757
-0.0182589
-0.0179945
-0.0177061
-0.0173611
-0.0170902
-0.0168932
-0.0168478
-0.0169781
-0.017391
-0.0181955
-0.0193811
-0.0208536
-0.0225265
-0.0241567
-0.0255283
-0.0265119
-0.0269417
-0.0268653
-0.0262758
-0.0253411
-0.0241776
-0.0228967
-0.0214012
-0.0195112
-0.0168396
-0.0129087
-0.0073898
-0.000135678
0.00865983
0.0184331
0.0284969
0.0381047
0.0468877
0.0546845
0.0617647
0.0685353
0.0752618
0.0819525
0.0881222
0.0929883
0.095742
0.0958851
0.0933246
0.088573
0.0823074
0.075372
0.0684637
0.0621852
0.0570641
0.0536864
0.0525482
0.0537867
0.0569091
0.0605942
0.0629763
0.0620808
0.0565272
0.0460075
0.0312808
0.0140739
-0.00360938
-0.0199074
-0.0335656
-0.0440439
-0.0513005
-0.0556803
-0.0577675
-0.0582875
-0.0580102
-0.0576451
-0.057715
-0.0584787
-0.0598249
-0.0614493
-0.0629702
-0.0641653
-0.0649591
-0.0655512
-0.0661629
-0.0670068
-0.0681559
-0.0694462
-0.0704944
-0.0709646
-0.0706825
-0.0698446
-0.0691332
-0.0698172
-0.0735536
-0.0821365
-0.0969644
-0.118631
-0.146433
-0.177716
-0.207535
-0.228782
-0.23247
-0.208378
-0.146245
-0.0379864
0.119235
0.319812
0.546972
0.772661
0.960922
1.07564
1.09037
0.99714
0.810506
0.564972
0.305605
0.0755523
-0.095249
-0.196122
-0.23469
-0.230411
-0.205856
-0.179277
-0.160653
-0.152142
-0.151127
-0.15357
-0.156215
-0.157536
-0.157545
-0.157011
-0.156648
-0.156856
-0.157648
-0.158771
-0.159703
-0.159882
-0.158897
-0.156598
-0.15325
-0.149387
-0.145641
-0.142498
-0.140196
-0.138708
-0.137888
-0.137559
-0.137587
-0.137792
-0.137947
-0.137778
-0.137053
-0.135456
-0.132937
-0.129596
-0.125717
-0.121696
-0.117938
-0.114873
-0.112767
-0.111718
-0.111648
-0.112254
-0.113112
-0.113912
-0.114449
-0.114676
-0.114594
-0.114205
-0.113377
-0.111825
-0.109121
-0.105116
-0.0999286
-0.0940126
-0.0881358
-0.0830491
-0.0792832
-0.077091
-0.0762901
-0.076489
-0.0771815
-0.0779399
-0.0784786
-0.0786124
-0.0784118
-0.0780388
-0.0777158
-0.077699
-0.0781942
-0.0791973
-0.0805634
-0.0820452
-0.0834517
-0.0847041
-0.0858875
-0.0870974
-0.0885575
-0.0901348
-0.0914627
-0.0919786
-0.0909266
-0.087686
-0.0817904
-0.0732457
-0.0624251
-0.0499717
-0.0367637
-0.0236131
-0.0111659
0.000181894
0.0103394
0.0194007
0.0276517
0.0354157
0.0428726
0.0501269
0.0571488
0.063704
0.0695866
0.074671
0.0789529
0.0826189
0.0859701
0.0892871
0.0927005
0.096156
0.0993702
0.102062
0.103871
0.104621
0.104259
0.10289
0.100617
0.0976253
0.0940702
0.0901041
0.0859292
0.0817904
0.0778501
0.0741651
0.0707464
0.0675654
0.0645885
0.0619818
0.0600169
0.0589104
0.0588563
0.0597819
0.0614006
0.063242
0.0647476
0.0654851
0.065258
0.0640279
0.0620242
0.0595803
0.0570593
0.0546153
0.0522641
0.0497887
0.0469236
0.0434761
0.0393779
0.0348408
0.0301719
0.0257317
0.0218134
0.0184381
0.0155854
0.013107
0.0107762
0.00846735
0.00610994
0.00365232
0.00111549
-0.00145098
-0.00392924
-0.00615399
-0.0079601
-0.00910882
-0.00950614
-0.00917498
-0.00839218
-0.00749497
-0.00687609
-0.00683639
-0.00752802
-0.00895685
-0.0109267
-0.0131985
-0.015528
-0.017692
-0.019599
-0.0211756
-0.0225352
-0.0238242
-0.0251658
-0.0265873
-0.0280546
-0.0294061
-0.0304719
-0.0311517
-0.031457
-0.0315138
-0.0313924
-0.0312551
-0.0310656
-0.030829
-0.0304501
-0.0298752
-0.0291139
-0.0280862
-0.0267533
-0.0250011
-0.0228632
-0.0204477
-0.0179872
-0.0158403
-0.0144083
-0.0140126
-0.0147837
-0.0165802
-0.0189095
-0.0210189
-0.0220277
-0.0210204
-0.0172841
-0.0105798
-0.00124383
0.00979515
0.0211976
0.0316858
0.0403245
0.0469325
0.0519505
0.056284
0.0609064
0.0664124
0.0727932
0.0794758
0.0855232
0.0899792
0.0920702
0.091558
0.0885881
0.0836943
0.0777208
0.0715983
0.0660868
0.0616177
0.058241
0.0555531
0.0529617
0.0500372
0.0467723
0.0437073
0.0418222
0.0419488
0.0442232
0.0477778
0.0508162
0.0511928
0.0471734
0.0380159
0.024301
0.00771331
-0.00953492
-0.0254323
-0.0383556
-0.04769
-0.0533907
-0.0559807
-0.0563528
-0.0555971
-0.0547209
-0.0545599
-0.0555152
-0.0575791
-0.0603145
-0.0631765
-0.0656412
-0.067385
-0.0683515
-0.068549
-0.068137
-0.0673246
-0.0664145
-0.0658061
-0.066255
-0.0688531
-0.0749476
-0.0860698
-0.10333
-0.127143
-0.156702
-0.189059
-0.218908
-0.23866
-0.238793
-0.208747
-0.138534
-0.0209963
0.145101
0.35199
0.580948
0.802652
0.98128
1.08234
1.08196
0.974956
0.778324
0.527712
0.268158
0.0415297
-0.123955
-0.219278
-0.253156
-0.245397
-0.218379
-0.189793
-0.169185
-0.15861
-0.155753
-0.157003
-0.159565
-0.161989
-0.163791
-0.164708
-0.164479
-0.162752
-0.159543
-0.155279
-0.150632
-0.146291
-0.142658
-0.139841
-0.137799
-0.136402
-0.135628
-0.135386
-0.135564
-0.135818
-0.135638
-0.134577
-0.132412
-0.129238
-0.125444
-0.121638
-0.118372
-0.115926
-0.114258
-0.113092
-0.111928
-0.110379
-0.10807
-0.104865
-0.100864
-0.0962748
-0.0914356
-0.0868005
-0.0829125
-0.0803392
-0.0795928
-0.0809782
-0.0843838
-0.0893541
-0.0950921
-0.100564
-0.104858
-0.107317
-0.10774
-0.106318
-0.103577
-0.100228
-0.096914
-0.0940967
-0.0919834
-0.0905264
-0.0894529
-0.0884842
-0.0874118
-0.0861458
-0.0847072
-0.0832537
-0.0818855
-0.0806985
-0.0798171
-0.0792422
-0.079053
-0.0793274
-0.0802986
-0.0822663
-0.0855702
-0.0904054
-0.0966127
-0.103609
-0.110295
-0.115329
-0.117364
-0.115438
-0.109181
-0.0989211
-0.0855229
-0.0701918
-0.0542273
-0.038838
-0.0249413
-0.0131624
-0.00375408
0.00349374
0.00908599
0.0137331
0.0182576
0.0231778
0.028732
0.0347567
0.0408569
0.0465534
0.0515868
0.0559041
0.0596733
0.0631653
0.0665878
0.0699701
0.0731908
0.0759414
0.0779337
0.078994
0.0790227
0.0781353
0.0764785
0.0743297
0.0718562
0.0692477
0.0666011
0.0640026
0.0616273
0.0597624
0.0586734
0.0586164
0.0596265
0.061391
0.0633386
0.0647449
0.0649537
0.0635897
0.0606629
0.0565343
0.0518279
0.0472565
0.0433621
0.0404722
0.0386628
0.0377394
0.0375711
0.0379168
0.0385968
0.0394524
0.0402343
0.0405758
0.0400386
0.0383223
0.0351805
0.0307129
0.0253212
0.0195786
0.0140828
0.00931954
0.00556711
0.00287083
0.0010939
4.84924e-5
-0.00048006
-0.000655787
-0.000692692
-0.000801243
-0.00127746
-0.00237596
-0.00425503
-0.00681721
-0.00985396
-0.012885
-0.0156327
-0.0179744
-0.0200123
-0.0220574
-0.0243881
-0.0272652
-0.0305644
-0.0340104
-0.0371741
-0.0396992
-0.0413447
-0.0420686
-0.0420477
-0.0415588
-0.0408739
-0.0402781
-0.0398996
-0.0396686
-0.0394138
-0.0388913
-0.0379824
-0.0367107
-0.0353851
-0.0343443
-0.0338578
-0.0339531
-0.0341917
-0.0340813
-0.0332687
-0.0318001
-0.0301918
-0.0290987
-0.0290881
-0.0301886
-0.0319278
-0.0335554
-0.0343325
-0.0339887
-0.0325698
-0.0304356
-0.0279579
-0.0252031
-0.0220049
-0.0180183
-0.0128757
-0.00636044
0.00147109
0.0102667
0.0194874
0.0282842
0.0358469
0.0415028
0.0451018
0.0470989
0.048625
0.0509859
0.0553476
0.0621676
0.0710397
0.080692
0.0895144
0.0960556
0.0992703
0.0990629
0.0957245
0.0899475
0.0825217
0.0741294
0.0655025
0.0574501
0.0509684
0.0471188
0.0465536
0.049158
0.0538615
0.0586889
0.061312
0.0595734
0.0520909
0.0387535
0.0205856
-0.000134051
-0.0207662
-0.0386519
-0.0518041
-0.0594185
-0.0618691
-0.0606747
-0.0578438
-0.0554675
-0.0549084
-0.0564793
-0.0595736
-0.062959
-0.0653851
-0.0659603
-0.0644641
-0.0613117
-0.0572266
-0.0530642
-0.0495699
-0.0472466
-0.0466235
-0.0484398
-0.0537908
-0.0640195
-0.0804871
-0.104207
-0.134662
-0.169018
-0.201467
-0.222784
-0.220873
-0.182238
-0.0949693
0.0470271
0.239739
0.465779
0.694526
0.886744
1.00354
1.01752
0.921885
0.733897
0.49092
0.239747
0.0233106
-0.130487
-0.214018
-0.237664
-0.222506
-0.191319
-0.161464
-0.141677
-0.133173
-0.13286
-0.136524
-0.14093
-0.144436
-0.146682
-0.147856
-0.148256
-0.148127
-0.14773
-0.14733
-0.147192
-0.147297
-0.147491
-0.147349
-0.146453
-0.144602
-0.141829
-0.138458
-0.135075
-0.132228
-0.13024
-0.129086
-0.12857
-0.128159
-0.127488
-0.12645
-0.125145
-0.124035
-0.123596
-0.124132
-0.125523
-0.127296
-0.128647
-0.128728
-0.126946
-0.123171
-0.117678
-0.111274
-0.1048
-0.0991083
-0.094814
-0.0922573
-0.0914012
-0.0920635
-0.0937919
-0.0959383
-0.0978602
-0.0989921
-0.0988832
-0.0975732
-0.0954036
-0.0930056
-0.0910894
-0.0901181
-0.0902625
-0.0912628
-0.0926538
-0.0938821
-0.094581
-0.0945754
-0.0939029
-0.0927574
-0.0915264
-0.0904968
-0.0901005
-0.0905967
-0.0921327
-0.0946019
-0.0977845
-0.101324
-0.10492
-0.108446
-0.111793
-0.115008
-0.11805
-0.120709
-0.122507
-0.122673
-0.120434
-0.115151
-0.106477
-0.0946781
-0.0803867
-0.0646358
-0.0484748
-0.0327687
-0.018021
-0.00428761
0.00857648
0.0208076
0.0326217
0.0440248
0.0549862
0.0654474
0.075293
0.084466
0.0928863
0.100461
0.107023
0.112496
0.116783
0.119868
0.121792
0.122547
0.122137
0.120658
0.118222
0.115248
0.112168
0.109412
0.107283
0.105781
0.104777
0.104047
0.103499
0.10309
0.102886
0.102887
0.102991
0.102907
0.102373
0.101146
0.0991698
0.096513
0.0933297
0.089786
0.086078
0.0824625
0.0791247
0.076278
0.0740403
0.0722812
0.0708107
0.0692393
0.0672101
0.0645634
0.0612505
0.0575065
0.0536753
0.0500234
0.0468056
0.0441273
0.0419752
0.040267
0.0388857
0.0376918
0.0365394
0.0353615
0.034019
0.0325022
0.0308435
0.0291301
0.0275594
0.0263437
0.0256734
0.0256801
0.0262291
0.0270129
0.0274911
0.0270504
0.0251891
0.0217361
0.017047
0.0118317
0.00699093
0.0033168
0.00121903
0.000722192
0.00146072
0.00293578
0.00469006
0.00644979
0.0081223
0.00961756
0.0109334
0.0119446
0.0124739
0.0123859
0.0117415
0.0106781
0.00946881
0.00831455
0.00739522
0.00658094
0.00557792
0.0039578
0.0014193
-0.00213582
-0.00646625
-0.0110502
-0.0152328
-0.0183044
-0.0197859
-0.0194312
-0.0172872
-0.0134905
-0.00830811
-0.00188537
0.00559866
0.0140206
0.0230917
0.0322924
0.0411028
0.0490174
0.0556301
0.0609023
0.065122
0.068743
0.0723254
0.0763478
0.0810869
0.0865469
0.0924595
0.0982866
0.103308
0.106741
0.107968
0.106603
0.102729
0.0969049
0.0901397
0.0836167
0.0787351
0.0765123
0.0774959
0.0812763
0.0863915
0.0907777
0.0920683
0.0884245
0.0790937
0.0646835
0.046795
0.0278577
0.0100469
-0.00497243
-0.0165461
-0.0248024
-0.0304031
-0.0341454
-0.036739
-0.0386866
-0.0402945
-0.0417136
-0.0429309
-0.0438891
-0.0445188
-0.0446593
-0.0442407
-0.0431188
-0.0413137
-0.0389523
-0.0363321
-0.0339605
-0.0327213
-0.0339491
-0.0394489
-0.0511084
-0.0703957
-0.0976675
-0.131163
-0.166798
-0.198051
-0.216954
-0.215501
-0.187294
-0.128547
-0.0380531
0.0833608
0.233402
0.40785
0.599134
0.794427
0.974038
1.11246
1.18276
1.16407
1.04945
0.850857
0.598038
0.331712
0.0927514
-0.0885606
-0.199505
-0.245348
-0.244371
-0.219637
-0.190865
-0.169971
-0.160561
-0.160425
-0.165118
-0.170545
-0.174377
-0.175894
-0.175455
-0.173651
-0.170945
-0.167804
-0.164511
-0.161445
-0.158829
-0.156758
-0.155122
-0.153715
-0.152335
-0.150821
-0.149169
-0.147461
-0.14585
-0.144555
-0.143673
-0.143174
-0.142966
-0.142792
-0.142366
-0.141476
-0.13989
-0.137583
-0.134571
-0.131045
-0.127256
-0.123539
-0.12011
-0.117077
-0.114546
-0.112475
-0.110881
-0.109646
-0.108676
-0.107884
-0.107114
-0.106251
-0.105291
-0.104345
-0.103588
-0.103128
-0.102919
-0.102676
-0.101976
-0.100492
-0.0980114
-0.0946073
-0.090717
-0.0869021
-0.0835847
-0.0811217
-0.0795538
-0.0786605
-0.0782784
-0.0783268
-0.0789701
-0.0805116
-0.0831962
-0.0871144
-0.0919712
-0.0971084
-0.101764
-0.10527
-0.107238
-0.107745
-0.107169
-0.105984
-0.104582
-0.102964
-0.100799
-0.0974458
-0.0921769
-0.0843945
-0.0737939
-0.0603899
-0.0447329
-0.0275282
-0.00979515
0.00743459
0.0231817
0.0368077
0.0480036
0.0569515
0.0641055
0.0703032
0.0763134
0.0827952
0.090108
0.0981688
0.106501
0.114358
0.120867
0.125311
0.127354
0.127098
0.125058
0.122041
0.118832
0.115974
0.113754
0.112111
0.110945
0.109911
0.108799
0.107371
0.105529
0.103172
0.100316
0.0970967
0.0937367
0.0904735
0.0875316
0.0850058
0.0828196
0.0808848
0.0790337
0.0772083
0.0754408
0.0738479
0.0725677
0.0715403
0.0705928
0.0693871
0.067482
0.0646369
0.0608886
0.0565947
0.0523015
0.0486761
0.0461121
0.0446932
0.0441193
0.0437349
0.0429153
0.0410596
0.0379665
0.0336489
0.0284998
0.0230294
0.0178219
0.0133397
0.00994861
0.00777337
0.00675971
0.00666503
0.00712755
0.00773959
0.00820816
0.00829088
0.00793798
0.00714079
0.00591224
0.00434971
0.00245497
0.000288899
-0.00202909
-0.0044237
-0.00680043
-0.00911289
-0.0113083
-0.013234
-0.0148303
-0.0158782
-0.0162634
-0.0159983
-0.0152038
-0.0140799
-0.0129632
-0.0120962
-0.0116629
-0.0115981
-0.0117726
-0.0119751
-0.0120238
-0.0119397
-0.0118014
-0.0117822
-0.0120346
-0.0126704
-0.0136102
-0.0148495
-0.0162499
-0.0178087
-0.0195256
-0.0212829
-0.0228123
-0.0236804
-0.0231525
-0.0205358
-0.0153474
-0.00745705
0.00278257
0.0144654
0.0265982
0.0381919
0.0486868
0.0579229
0.0661305
0.0736819
0.0806457
0.0868693
0.0918208
0.0950174
0.0961392
0.0953295
0.0930343
0.089971
0.0866781
0.0835072
0.0804557
0.0773691
0.0741077
0.070755
0.0677708
0.0658645
0.0657284
0.067414
0.070156
0.0724454
0.0722251
0.0677475
0.0581206
0.043698
0.0260364
0.00731655
-0.0102202
-0.0249769
-0.0361923
-0.0439934
-0.0489302
-0.0517374
-0.0531241
-0.0536859
-0.0538991
-0.0542244
-0.0549136
-0.0561218
-0.0577855
-0.0596087
-0.0612822
-0.0624772
-0.0630471
-0.0628865
-0.0621508
-0.0611642
-0.0603052
-0.0603728
-0.0624877
-0.0681099
-0.0789171
-0.0961763
-0.120379
-0.150538
-0.18357
-0.213901
-0.233709
-0.233364
-0.201989
-0.129111
-0.00719344
0.165288
0.380126
0.617232
0.845116
1.02555
1.12225
1.11094
0.987803
0.772286
0.503063
0.227721
-0.0101416
-0.181422
-0.276921
-0.30571
-0.288415
-0.248766
-0.206321
-0.172753
-0.152049
-0.142857
-0.141377
-0.143597
-0.146648
-0.148908
-0.149809
-0.14951
-0.148404
-0.147173
-0.146381
-0.146505
-0.147723
-0.149833
-0.152439
-0.155059
-0.157132
-0.158228
-0.158021
-0.156381
-0.1533
-0.149063
-0.144149
-0.139149
-0.134643
-0.131048
-0.128376
-0.12644
-0.124897
-0.123246
-0.121109
-0.118321
-0.114947
-0.111237
-0.107706
-0.104795
-0.103
-0.102514
-0.103214
-0.104709
-0.106275
-0.107155
-0.10678
-0.104975
-0.101863
-0.0979497
-0.0938742
-0.090171
-0.0871074
-0.0847232
-0.0828318
-0.0812848
-0.0799711
-0.0789933
-0.0785266
-0.0786825
-0.0793957
-0.0803995
-0.0812629
-0.0815777
-0.0811788
-0.0801933
-0.0789818
-0.07807
-0.0778677
-0.0785231
-0.079948
-0.0817715
-0.0836556
-0.0853123
-0.0867175
-0.0879856
-0.0893151
-0.0907609
-0.0921614
-0.0931227
-0.0929745
-0.0908336
-0.085909
-0.0776122
-0.065646
-0.0503808
-0.032666
-0.0137956
0.00478007
0.0218301
0.0366273
0.0489503
0.0591285
0.0677067
0.0751195
0.0815973
0.087024
0.0910657
0.0934284
0.0940332
0.0931446
0.0914048
0.0896398
0.0885533
0.088515
0.0895361
0.0912231
0.0930795
0.0946399
0.0957207
0.096325
0.0965885
0.0966149
0.0963495
0.095692
0.0945163
0.0928364
0.090898
0.0889341
0.0871372
0.0854848
0.0836687
0.0812117
0.0777494
0.0731289
0.0676024
0.0617156
0.0560946
0.0512842
0.0475806
0.044997
0.0433722
0.0424696
0.0419433
0.0415038
0.0408013
0.0395032
0.0373742
0.0343665
0.0307022
0.0267581
0.0230398
0.0199266
0.0176434
0.0162135
0.0153791
0.0148548
0.014297
0.0134264
0.011984
0.00980282
0.00678709
0.00297525
-0.0014606
-0.0062697
-0.0110766
-0.0155223
-0.0193488
-0.0223744
-0.0244415
-0.0255891
-0.0258379
-0.0253403
-0.0242597
-0.0228523
-0.02138
-0.0200087
-0.0188473
-0.0179196
-0.0172454
-0.0169572
-0.0171393
-0.0178933
-0.0191946
-0.0208116
-0.0223407
-0.023325
-0.0234309
-0.0226143
-0.0210713
-0.0192346
-0.0174568
-0.0160631
-0.0150229
-0.0141158
-0.0130257
-0.0115068
-0.00954074
-0.00733225
-0.00529506
-0.00383938
-0.00311537
-0.00302632
-0.00302325
-0.00235129
-0.000177442
0.00416664
0.0109769
0.0199676
0.0303437
0.0410566
0.0510371
0.0595284
0.0663302
0.0717038
0.0762584
0.0806542
0.0850433
0.0892906
0.0927889
0.0949195
0.0953649
0.0942771
0.0923003
0.0902678
0.088804
0.0879815
0.0873346
0.0863492
0.0846495
0.0825899
0.081255
0.0819474
0.085303
0.0908369
0.0968043
0.1006
0.0997516
0.0928296
0.0798905
0.0625811
0.0433158
0.0245308
0.00804632
-0.00531094
-0.0155276
-0.023112
-0.0287346
-0.0329333
-0.036104
-0.0384703
-0.0401376
-0.0409365
-0.040662
-0.0392378
-0.0366093
-0.0329136
-0.0287146
-0.0247016
-0.0215047
-0.0196555
-0.0194073
-0.0206622
-0.0233424
-0.0275328
-0.0338749
-0.0435326
-0.0579691
-0.0784679
-0.105502
-0.13805
-0.173283
-0.206595
-0.232087
-0.243307
-0.234089
-0.198914
-0.132794
-0.0317134
0.106581
0.280783
0.48384
0.700945
0.909243
1.07995
1.18361
1.19756
1.11279
0.938198
0.699929
0.435595
0.185155
-0.0188008
-0.158124
-0.231089
-0.249731
-0.233783
-0.203341
-0.173668
-0.152931
-0.142927
-0.14137
-0.144544
-0.149195
-0.153343
-0.156246
-0.157744
-0.157952
-0.157176
-0.155674
-0.153773
-0.151802
-0.150072
-0.148791
-0.14817
-0.148247
-0.148981
-0.15014
-0.151344
-0.151851
-0.151119
-0.14878
-0.144788
-0.139662
-0.134137
-0.128987
-0.124705
-0.121373
-0.118701
-0.116416
-0.114316
-0.112434
-0.11093
-0.109988
-0.109488
-0.109198
-0.108746
-0.107798
-0.106214
-0.104084
-0.101646
-0.0991807
-0.096907
-0.0950855
-0.0938464
-0.093409
-0.0937988
-0.0950254
-0.0969924
-0.0994442
-0.10211
-0.104662
-0.10678
-0.108235
-0.108687
-0.107901
-0.105762
-0.102329
-0.0979352
-0.0931908
-0.0888977
-0.0857265
-0.0841788
-0.0842653
-0.0857133
-0.0881259
-0.0910307
-0.0941481
-0.0974382
-0.100812
-0.104184
-0.10729
-0.109847
-0.111656
-0.11252
-0.112368
-0.11109
-0.10843
-0.10407
-0.0975117
-0.0884884
-0.0768323
-0.0627595
-0.0467799
-0.0296609
-0.0122051
0.00475211
0.0204076
0.0342137
0.0457671
0.0549583
0.0620028
0.0672809
0.0712669
0.0744862
0.0772672
0.0797813
0.0819958
0.0837381
0.0848837
0.0852284
0.0846177
0.0830498
0.0805303
0.0772342
0.0735354
0.0699023
0.0669098
0.0650438
0.0645375
0.0653867
0.0671954
0.0693846
0.0712755
0.0722319
0.0717901
0.0697717
0.0662538
0.0615574
0.0561936
0.0507378
0.0457154
0.0415612
0.038506
0.0365618
0.0354669
0.0349384
0.0346094
0.0341678
0.033419
0.0323511
0.0308435
0.0288469
0.0261513
0.0225304
0.0178831
0.0123915
0.00652191
0.000929508
-0.00367892
-0.00685082
-0.0084753
-0.00891142
-0.00868839
-0.00840417
-0.0085256
-0.00933359
-0.010815
-0.0127477
-0.014767
-0.0164379
-0.0173248
-0.017294
-0.0164004
-0.0151263
-0.0142469
-0.0145719
-0.016642
-0.0205099
-0.0256511
-0.0311307
-0.0359113
-0.0391795
-0.0405693
-0.0402352
-0.0387125
-0.0366478
-0.0345717
-0.0327602
-0.0312269
-0.029843
-0.0284452
-0.0270766
-0.0258993
-0.025221
-0.0253856
-0.0265076
-0.0284753
-0.0308283
-0.032971
-0.0341471
-0.0336459
-0.0310101
-0.0260968
-0.0192335
-0.0110803
-0.002542
0.00557977
0.0126779
0.0186285
0.0237533
0.0284464
0.0330845
0.0379079
0.0428865
0.0479735
0.0530396
0.0579294
0.0623909
0.0659325
0.0679451
0.0678769
0.0654004
0.0607159
0.0545568
0.0479985
0.042142
0.0379325
0.0358687
0.0359041
0.0374341
0.039328
0.0400804
0.0382049
0.0325572
0.0227198
0.00910891
-0.00691233
-0.0233983
-0.038538
-0.0508618
-0.0598505
-0.065716
-0.0694154
-0.072021
-0.0743264
-0.076783
-0.0792642
-0.0812672
-0.0821052
-0.0813109
-0.0786329
-0.074304
-0.0690417
-0.0638133
-0.0597855
-0.0578698
-0.0584983
-0.061345
-0.06551
-0.0696022
-0.0724572
-0.0733655
-0.0725773
-0.0714253
-0.071986
-0.0767328
-0.087896
-0.106927
-0.133809
-0.166684
-0.2014
-0.231371
-0.247766
-0.240115
-0.197394
-0.110214
0.0260968
0.208114
0.421491
0.640342
0.830404
0.956063
0.989689
0.920323
0.758356
0.533701
0.288164
0.0636533
-0.10868
-0.214973
-0.259095
-0.257413
-0.230932
-0.198197
-0.170999
-0.153829
-0.146038
-0.144608
-0.146389
-0.149166
-0.151843
-0.153874
-0.154944
-0.154879
-0.153634
-0.151468
-0.148715
-0.145854
-0.143271
-0.141203
-0.139786
-0.138929
-0.138707
-0.139016
-0.139649
-0.140359
-0.140887
-0.14101
-0.140731
-0.140079
-0.139226
-0.138188
-0.136909
-0.135116
-0.132639
-0.129395
-0.125532
-0.121429
-0.117526
-0.114102
-0.111276
-0.108952
-0.107042
-0.105391
-0.103939
-0.102646
-0.101495
-0.100518
-0.0996213
-0.0988023
-0.0980347
-0.0973941
-0.0968949
-0.0965123
-0.0961682
-0.0957984
-0.0952978
-0.0947228
-0.0942395
-0.0940044
-0.0940976
-0.0945174
-0.0950633
-0.0954306
-0.0953608
-0.0947168
-0.0936266
-0.0923506
-0.0911841
-0.0904575
-0.0904336
-0.0912202
-0.0928111
-0.0951064
-0.0978888
-0.100882
-0.103819
-0.106473
-0.108747
-0.110707
-0.112408
-0.113861
-0.114932
-0.115301
-0.114379
-0.111684
-0.106754
-0.099332
-0.089478
-0.0774877
-0.0638685
-0.0492178
-0.0340931
-0.0189581
-0.00426903
0.00963905
0.022494
0.034086
0.0444103
0.053628
0.0619887
0.0698448
0.0774311
0.0849004
0.0922459
0.0992854
0.105801
0.111569
0.116384
0.120066
0.122545
0.123908
0.124295
0.123923
0.123061
0.12197
0.120783
0.119605
0.118419
0.11716
0.115681
0.113791
0.111454
0.108781
0.106032
0.103642
0.102046
0.101492
0.101962
0.103037
0.104019
0.104208
0.103158
0.100806
0.0975376
0.0939953
0.0907821
0.0882217
0.0862798
0.0846612
0.0829778
0.0809197
0.0784765
0.0757481
0.0729647
0.070088
0.0670969
0.0638339
0.0602024
0.0563621
0.0525305
0.0490266
0.0460702
0.0436947
0.0416842
0.0397979
0.0377644
0.0355114
0.0330606
0.0306372
0.0284261
0.026608
0.0253135
0.0245782
0.0243748
0.0245853
0.0250047
0.0254474
0.0257127
0.0256846
0.0252644
0.0245039
0.0233816
0.0218855
0.0199423
0.0174207
0.014328
0.0107572
0.0069685
0.00344501
0.000651696
-0.000995896
-0.0012973
-0.000358621
0.00147737
0.00361713
0.0054468
0.00654161
0.00662954
0.00580869
0.00430172
0.00246939
0.000662675
-0.000961834
-0.00226007
-0.00327476
-0.00409152
-0.00479988
-0.00549839
-0.00620544
-0.00686196
-0.00740278
-0.00767769
-0.00760957
-0.00714649
-0.00629707
-0.00499031
-0.00313792
-0.000540487
0.00296822
0.00755844
0.0131649
0.0196027
0.0264541
0.0333046
0.0397903
0.045754
0.0512876
0.0566302
0.0622526
0.0683948
0.075116
0.0821443
0.088827
0.0944189
0.0982072
0.0997645
0.0991131
0.0965583
0.0926184
0.0879531
0.0831126
0.0786853
0.0752806
0.0735884
0.0741307
0.0768184
0.0807707
0.0841907
0.0849095
0.0810168
0.0715164
0.0568778
0.0387863
0.0197396
0.00208802
-0.0124777
-0.0232921
-0.0305438
-0.0348882
-0.0371963
-0.0382004
-0.038511
-0.0386757
-0.0390258
-0.0398288
-0.0412101
-0.043216
-0.045679
-0.0484839
-0.0515318
-0.0546243
-0.0576455
-0.0604024
-0.0626079
-0.0640314
-0.0645421
-0.0642332
-0.0635966
-0.0634013
-0.0647414
-0.0688498
-0.0767916
-0.0894147
-0.107257
-0.130418
-0.158322
-0.189216
-0.219835
-0.245314
-0.260015
-0.258561
-0.23741
-0.195525
-0.134595
-0.0573517
0.0344079
0.141557
0.267542
0.415933
0.58615
0.769056
0.944652
1.0842
1.15665
1.13827
1.02158
0.819969
0.565568
0.300884
0.0670025
-0.107218
-0.210983
-0.251288
-0.246791
-0.219741
-0.188637
-0.164396
-0.150279
-0.144728
-0.144284
-0.145915
-0.14784
-0.149457
-0.150689
-0.151459
-0.151637
-0.151077
-0.149792
-0.147955
-0.14571
-0.143253
-0.140663
-0.138054
-0.135571
-0.133468
-0.13191
-0.131001
-0.130703
-0.130678
-0.130581
-0.130051
-0.128766
-0.126504
-0.123299
-0.119311
-0.114856
-0.110361
-0.106231
-0.102919
-0.100698
-0.0996728
-0.0996588
-0.100363
-0.101309
-0.102087
-0.102417
-0.102168
-0.101442
-0.100314
-0.098911
-0.097264
-0.0955178
-0.0938293
-0.0923981
-0.0915587
-0.0915001
-0.0922107
-0.0934267
-0.0947174
-0.095613
-0.0957741
-0.0950845
-0.0936815
-0.0918367
-0.0897855
-0.0876387
-0.0854593
-0.0832512
-0.081123
-0.0792942
-0.0781393
-0.0780084
-0.0790886
-0.0812385
-0.0841272
-0.0872905
-0.0902959
-0.092894
-0.0950621
-0.0969255
-0.0985339
-0.0997885
-0.100412
-0.09987
-0.0976372
-0.0932478
-0.0864535
-0.0773153
-0.0661332
-0.0534731
-0.0399679
-0.0263421
-0.0131984
-0.00110568
0.00959756
0.0187363
0.0264753
0.0331708
0.0393396
0.0454646
0.0518536
0.0586359
0.0655769
0.0724395
0.0789862
0.0850364
0.0905752
0.0955968
0.100125
0.104036
0.10717
0.109462
0.110953
0.111833
0.112322
0.11269
0.112935
0.112924
0.112285
0.110825
0.108525
0.105785
0.103183
0.101285
0.100448
0.10052
0.100983
0.101086
0.100338
0.098459
0.0956014
0.092259
0.0889355
0.0860106
0.083655
0.0817772
0.0802515
0.0788187
0.077273
0.0754064
0.0730971
0.0702962
0.0669991
0.0633189
0.0595249
0.0559042
0.0527412
0.050187
0.0482406
0.0467725
0.0454794
0.0441242
0.042516
0.0405377
0.0381942
0.0355302
0.0326679
0.0297409
0.0268587
0.0241193
0.0215179
0.018914
0.0161208
0.0129162
0.00914113
0.00472643
-3.22327e-5
-0.00476528
-0.00893196
-0.0120716
-0.0139364
-0.0146665
-0.014572
-0.01424
-0.0142199
-0.0147911
-0.0159071
-0.0172673
-0.0184165
-0.0190283
-0.0190857
-0.0187883
-0.0184506
-0.018378
-0.0186033
-0.0189665
-0.0193019
-0.0193648
-0.0191844
-0.0189286
-0.0189123
-0.0192937
-0.020145
-0.0213475
-0.022569
-0.0236105
-0.0242916
-0.0245865
-0.02469
-0.024766
-0.0250294
-0.0255701
-0.0262993
-0.02695
-0.0270733
-0.0261325
-0.0236107
-0.0191398
-0.0125151
-0.00377355
0.0066911
0.0182556
0.0301159
0.0413403
0.0512101
0.059308
0.0657618
0.0711163
0.0761129
0.0814692
0.087418
0.0936256
0.099218
0.103116
0.104376
0.102452
0.097503
0.0900976
0.0812731
0.0722969
0.0644041
0.0587269
0.0562162
0.0573994
0.0619575
0.0687803
0.0759731
0.0811493
0.0821418
0.0776663
0.0675978
0.0532332
0.0366801
0.0203213
0.00612576
-0.0048751
-0.0126227
-0.0177738
-0.0213323
-0.0242613
-0.0271609
-0.0302571
-0.0334033
-0.036129
-0.0380516
-0.0390081
-0.0391712
-0.0389898
-0.0390942
-0.0400052
-0.0419153
-0.0446999
-0.0479487
-0.051169
-0.0539667
-0.0562082
-0.0577678
-0.0587265
-0.0590583
-0.0587465
-0.0579886
-0.0574581
-0.0585146
-0.0630547
-0.0731522
-0.0903739
-0.115152
-0.146009
-0.179015
-0.207654
-0.223371
-0.216206
-0.175901
-0.0932975
0.0373649
0.215417
0.431005
0.663419
0.882031
1.05082
1.13635
