-0.162734
-0.164995
-0.166966
-0.168626
-0.169887
-0.170606
-0.170466
-0.168935
-0.165289
-0.158826
-0.149068
-0.13595
-0.119789
-0.101364
-0.0816588
-0.0616647
-0.0422021
-0.0238315
-0.00668906
0.00934562
0.0245695
0.0393437
0.0538555
0.0680543
0.0817918
0.0948181
0.10686
0.117861
0.127723
0.136418
0.143928
0.150165
0.155033
0.158559
0.160811
0.161974
0.162349
0.162227
0.161748
0.160957
0.159753
0.15803
0.155679
0.152838
0.149603
0.14631
0.143137
0.140206
0.137494
0.13499
0.132621
0.130442
0.128569
0.127094
0.126011
0.125282
0.124745
0.12428
0.123898
0.123518
0.123053
0.122314
0.120975
0.118737
0.115444
0.111132
0.106182
0.100968
0.0958721
0.0910193
0.0863438
0.0815046
0.0763232
0.0706945
0.064833
0.0590462
0.0536642
0.0488954
0.0448596
0.0415901
0.0390813
0.0372252
0.0359571
0.0351266
0.0344614
0.0337441
0.0327791
0.0315551
0.0301919
0.0288029
0.0274973
0.0262642
0.024803
0.0229407
0.0204972
0.0175145
0.0142563
0.0110574
0.00819866
0.00585771
0.0039531
0.00224077
0.000459305
-0.00156738
-0.00384134
-0.0062613
-0.00864287
-0.0107114
-0.0123606
-0.0135813
-0.0144573
-0.0151517
-0.015799
-0.01654
-0.0173118
-0.0180511
-0.018725
-0.0193572
-0.0200395
-0.0210303
-0.0223866
-0.0240959
-0.0259669
-0.0276083
-0.0286684
-0.0289797
-0.0286017
-0.0277631
-0.0267433
-0.0257043
-0.0245478
-0.0228567
-0.0199695
-0.0151947
-0.00813546
0.00120374
0.012234
0.0239135
0.0350955
0.0449742
0.0530994
0.0596963
0.0653566
0.0707173
0.0760929
0.0813425
0.0858788
0.0889744
0.0900991
0.089046
0.086088
0.0817606
0.0767951
0.0719265
0.0678935
0.0653799
0.0650259
0.0671211
0.0712807
0.0762643
0.0802137
0.0810076
0.0769941
0.0674915
0.0531009
0.0354885
0.0168378
-0.000759693
-0.0157704
-0.0275454
-0.0361297
-0.0419757
-0.0457063
-0.0479964
-0.0493766
-0.0502952
-0.051032
-0.0516722
-0.0522496
-0.0526312
-0.0527266
-0.0524143
-0.051686
-0.0505239
-0.0490279
-0.0473544
-0.0458552
-0.045106
-0.0461215
-0.0503444
-0.0596017
-0.0757467
-0.0998157
-0.131422
-0.168013
-0.204255
-0.232121
-0.241956
-0.223958
-0.169772
-0.0739381
0.0653062
0.245141
0.45753
0.688435
0.917323
1.11784
1.26058
1.31854
1.27438
1.12716
0.895313
0.614204
0.327841
0.0777904
-0.107218
-0.217031
-0.259699
-0.255743
-0.229465
-0.201012
-0.182064
-0.175649
-0.178912
-0.186727
-0.194638
-0.200164
-0.20283
-0.203325
-0.202588
-0.20131
-0.199854
-0.198347
-0.196874
-0.195557
-0.194583
-0.194005
-0.193829
-0.193899
-0.193895
-0.193559
-0.192622
-0.191006
-0.188782
-0.186069
-0.183059
-0.179922
-0.176794
-0.173815
-0.171038
-0.168607
-0.166611
-0.164984
-0.163636
-0.162357
-0.16097
-0.159312
-0.157306
-0.154948
-0.152378
-0.149789
-0.147464
-0.145644
-0.144493
-0.143915
-0.14367
-0.143361
-0.142592
-0.141105
-0.138978
-0.136564
-0.134284
-0.1326
-0.131718
-0.13159
-0.132058
-0.132816
-0.13357
-0.134271
-0.134866
-0.135499
-0.136317
-0.137369
-0.138665
-0.140138
-0.141634
-0.143003
-0.144073
-0.144785
-0.145131
-0.145261
-0.145351
-0.145607
-0.146105
-0.146775
-0.147341
-0.147395
-0.146431
-0.143992
-0.139695
-0.133267
-0.124571
-0.113648
-0.100726
-0.0861379
-0.0705325
-0.0545594
-0.0389693
-0.0244288
-0.0112265
0.000601654
0.0112838
0.0212483
0.0309019
0.0404628
0.0499213
0.059063
0.0675805
0.0752596
0.081977
0.0877962
0.0928105
0.097103
0.100585
0.103256
0.105181
0.106511
0.10751
0.10843
0.109342
0.110029
0.110217
0.109404
0.107333
0.103945
0.0994876
0.0943957
0.0891974
0.0843004
0.0800051
0.0763671
0.0734188
0.0710993
0.0693354
0.0681303
0.0674612
0.0672663
0.0674311
0.0678174
0.0682365
0.0685134
0.0684985
0.0680078
0.0669025
0.0651058
0.062542
0.0592783
0.0554067
0.0510967
0.0465674
0.042019
0.0375432
0.0332158
0.0290515
0.0249864
0.021003
0.0171991
0.0136453
0.0105066
0.0079775
0.00614439
0.00496569
0.00429255
0.00390706
0.0034782
0.00285345
0.00189721
0.000612396
-0.000855121
-0.00230799
-0.0036138
-0.00463606
-0.00531829
-0.00573518
-0.00590415
-0.00599759
-0.00607041
-0.0061768
-0.00642489
-0.00685716
-0.00746618
-0.00828077
-0.0093243
-0.0105808
-0.012018
-0.0135681
-0.0151742
-0.016687
-0.0180803
-0.0193141
-0.0203188
-0.0211108
-0.0215955
-0.0217624
-0.0215432
-0.0208881
-0.0197971
-0.0183656
-0.0167355
-0.0150857
-0.0135011
-0.0119628
-0.0103835
-0.00865273
-0.00665318
-0.00442837
-0.00229599
-0.000694274
-0.00013404
-0.000913488
-0.00297958
-0.00582903
-0.00864211
-0.0104926
-0.0105119
-0.00811624
-0.00309527
0.00440788
0.0138325
0.0243931
0.0351799
0.0452946
0.0540334
0.0611383
0.0666983
0.0713139
0.075645
0.0803172
0.0856726
0.091599
0.0975555
0.102773
0.106437
0.107884
0.106859
0.103557
0.0985046
0.0924567
0.0861887
0.0802739
0.0750969
0.0709157
0.0679689
0.0664827
0.066581
0.068129
0.0704834
0.0725489
0.0729567
0.070363
0.0639546
0.0536121
0.0400907
0.0247229
0.00907179
-0.00540696
-0.0175832
-0.0269875
-0.0334956
-0.0374034
-0.0393663
-0.0401764
-0.0405856
-0.0412283
-0.0424884
-0.0443773
-0.0467301
-0.0491896
-0.0514776
-0.05346
-0.0550585
-0.0563688
-0.0574509
-0.0583249
-0.0588977
-0.0590513
-0.0585589
-0.0573262
-0.0555224
-0.0535922
-0.0523149
-0.0528851
-0.0567251
-0.0652073
-0.0795219
-0.100167
-0.126703
-0.157319
-0.188298
-0.213812
-0.226095
-0.216163
-0.17466
-0.0937368
0.0309974
0.198187
0.398271
0.612742
0.814958
0.973955
1.06069
1.05569
0.955238
0.774081
0.542856
0.300508
0.0841471
-0.0798149
-0.18093
-0.224323
-0.225893
-0.205442
-0.180026
-0.160385
-0.150357
-0.148924
-0.152713
-0.158209
-0.162947
-0.165678
-0.166031
-0.164337
-0.161163
-0.157313
-0.153714
-0.151092
-0.149874
-0.150028
-0.151055
-0.15219
-0.152684
-0.152006
-0.149985
-0.146828
-0.142952
-0.138884
-0.135033
-0.131562
-0.128508
-0.12581
-0.123385
-0.121215
-0.119268
-0.117503
-0.115907
-0.114373
-0.112845
-0.111399
-0.110051
-0.108989
-0.108196
-0.107687
-0.107346
-0.107083
-0.106739
-0.106273
-0.105597
-0.104696
-0.103523
-0.102115
-0.100569
-0.0989636
-0.0974523
-0.096206
-0.0953359
-0.0948122
-0.0946397
-0.0946516
-0.0947302
-0.0947307
-0.094494
-0.0939226
-0.0930546
-0.0918298
-0.0904671
-0.0890529
-0.08783
-0.0869384
-0.0864349
-0.086289
-0.0864543
-0.0867784
-0.0872534
-0.0878959
-0.0887881
-0.0900836
-0.0919935
-0.0946611
-0.0980642
-0.10185
-0.105356
-0.107659
-0.107702
-0.104635
-0.0981246
-0.0883715
-0.0762277
-0.0629525
-0.0497448
-0.0376595
-0.0272848
-0.018863
-0.0122158
-0.00704705
-0.00299344
0.000398046
0.00340241
0.0062878
0.00924594
0.012377
0.0156819
0.0190613
0.0225133
0.0260292
0.0297528
0.0338927
0.038723
0.0443609
0.0507231
0.0575077
0.0643424
0.0707186
0.0763079
0.0810376
0.0849966
0.0884154
0.0915148
0.0943752
0.0968269
0.098605
0.0993895
0.0989221
0.0972851
0.0947799
0.0919525
0.0894101
0.0875411
0.0865322
0.0861929
0.0861641
0.0860996
0.0857935
0.08516
0.0843487
0.083531
0.0827434
0.0817825
0.0804188
0.0783478
0.0753287
0.0714049
0.0667387
0.0615797
0.0561675
0.0507544
0.0456613
0.0411759
0.0376702
0.0354087
0.034484
0.0346635
0.0354711
0.0364093
0.0369883
0.0369015
0.0361413
0.0346413
0.0323875
0.0293409
0.0253747
0.0205608
0.0151263
0.00957189
0.00443703
0.00019289
-0.00278433
-0.00451907
-0.00525631
-0.00534619
-0.00513072
-0.00479924
-0.00454532
-0.00441113
-0.00448137
-0.00493787
-0.00588544
-0.00726014
-0.00887226
-0.0103301
-0.0112641
-0.0114021
-0.0109408
-0.010251
-0.00991743
-0.0105776
-0.0124006
-0.0153561
-0.0190502
-0.0229444
-0.0265644
-0.0296327
-0.0320921
-0.0340052
-0.0354509
-0.036382
-0.0366705
-0.0362012
-0.0349633
-0.0331803
-0.0313066
-0.0297761
-0.0289847
-0.0290825
-0.0298202
-0.0307888
-0.0315578
-0.0317466
-0.0312175
-0.0300199
-0.0282751
-0.0259498
-0.0229172
-0.018915
-0.0137192
-0.00732744
-0.00014442
0.00728046
0.0142366
0.0203061
0.0255444
0.0303831
0.0356481
0.0421311
0.0502405
0.0598834
0.0703266
0.0804348
0.0889509
0.0948168
0.0974154
0.0967101
0.0931911
0.0876781
0.0810223
0.0740268
0.06728
0.0613684
0.0568149
0.0541512
0.0536973
0.0551139
0.0574478
0.0590717
0.0580835
0.0528417
0.0424636
0.0273955
0.00908596
-0.0101832
-0.0279249
-0.0421547
-0.0516884
-0.0564152
-0.0572004
-0.0554726
-0.0528572
-0.0507405
-0.0499041
-0.0505842
-0.052484
-0.0550657
-0.0578127
-0.0603601
-0.0625356
-0.0642973
-0.0657275
-0.066789
-0.0674918
-0.0678424
-0.0677843
-0.0672688
-0.0661898
-0.06457
-0.0624562
-0.0603072
-0.0591227
-0.0604955
-0.0664519
-0.0789153
-0.0992991
-0.127656
-0.161784
-0.19674
-0.224844
-0.23598
-0.218586
-0.161543
-0.0568594
0.0971872
0.293086
0.512388
0.726624
0.90147
1.00432
1.01276
0.921622
0.745721
0.516767
0.275215
0.0593679
-0.10386
-0.203971
-0.246221
-0.246528
-0.224499
-0.196968
-0.17457
-0.161426
-0.156918
-0.158105
-0.161754
-0.165459
-0.168048
-0.169184
-0.169076
-0.168103
-0.166595
-0.164769
-0.162519
-0.159656
-0.155986
-0.151497
-0.146389
-0.14118
-0.136581
-0.133179
-0.131418
-0.131337
-0.132607
-0.134591
-0.136587
-0.137993
-0.138459
-0.138036
-0.137181
-0.136429
-0.136275
-0.136947
-0.138251
-0.139665
-0.140398
-0.139838
-0.13771
-0.134248
-0.130049
-0.125975
-0.122614
-0.120163
-0.118409
-0.116859
-0.115067
-0.113023
-0.11106
-0.109799
-0.109809
-0.11126
-0.113847
-0.116845
-0.119484
-0.121217
-0.121849
-0.121573
-0.120643
-0.119201
-0.117263
-0.114611
-0.111156
-0.106996
-0.102653
-0.0988509
-0.0965193
-0.096234
-0.0982451
-0.102317
-0.107773
-0.113665
-0.119146
-0.123491
-0.126408
-0.128119
-0.129081
-0.130006
-0.131474
-0.133732
-0.13647
-0.138875
-0.1397
-0.137676
-0.131862
-0.12211
-0.108977
-0.0937286
-0.0779883
-0.0633716
-0.0510808
-0.0418095
-0.0355481
-0.0316673
-0.0290122
-0.0261319
-0.0216271
-0.0145602
-0.00459138
0.00776234
0.0214568
0.0353685
0.0485498
0.0606734
0.0719116
0.0825986
0.0928985
0.102531
0.110775
0.116887
0.120349
0.121282
0.120435
0.118932
0.117852
0.11781
0.118619
0.11953
0.119355
0.117103
0.112355
0.105563
0.0978939
0.0909169
0.0859425
0.0837208
0.0841071
0.0862384
0.0889073
0.0908727
0.0914052
0.090292
0.0878324
0.0847535
0.0817541
0.0794146
0.0781629
0.0780797
0.0789272
0.0801669
0.0810319
0.0807362
0.0788259
0.0749999
0.0695414
0.063088
0.0565427
0.0507912
0.0464422
0.0436563
0.0421356
0.0412484
0.0402627
0.0385769
0.035938
0.0325681
0.0289001
0.025665
0.0233786
0.0223171
0.0224548
0.0235603
0.0251559
0.0267368
0.0278847
0.0283137
0.0278938
0.0266124
0.0244592
0.0214813
0.0178326
0.0137086
0.00950815
0.00578525
0.00309908
0.00185936
0.00222015
0.00383685
0.00609542
0.00820575
0.00936006
0.00898041
0.006897
0.00329907
-0.00113244
-0.00566617
-0.0094797
-0.0120199
-0.0130575
-0.0127437
-0.0114453
-0.00963963
-0.00775864
-0.00603918
-0.00462857
-0.0034803
-0.00260363
-0.00196927
-0.00152336
-0.00121971
-0.000908501
-0.000362311
0.000669718
0.00252193
0.00540387
0.00939152
0.0143978
0.020158
0.0263131
0.032558
0.0387235
0.0449934
0.0516419
0.0590462
0.0672522
0.0759975
0.0845042
0.0917014
0.0965867
0.0985831
0.0978301
0.0950383
0.0913203
0.0878308
0.0851013
0.0831385
0.0816016
0.0801906
0.0789265
0.0783712
0.0792052
0.0818509
0.0860554
0.0907075
0.0941985
0.0949366
0.0918653
0.0847259
0.0742174
0.0614327
0.0476637
0.0339197
0.020899
0.0089293
-0.00172245
-0.0108773
-0.0183643
-0.023944
-0.0274862
-0.0290732
-0.0288918
-0.027476
-0.0255759
-0.0240942
-0.0237753
-0.025119
-0.0279817
-0.0317724
-0.035571
-0.0384442
-0.0396846
-0.0391145
-0.0370576
-0.0342385
-0.0315554
-0.0299431
-0.0303829
-0.0340317
-0.0421637
-0.0559172
-0.0761798
-0.102905
-0.134442
-0.166767
-0.193118
-0.204465
-0.190205
-0.139623
-0.044053
0.100388
0.290092
0.511941
0.742691
0.951273
1.10385
1.17143
1.13731
1.00289
0.788551
0.529501
0.267053
0.0386617
-0.13065
-0.232127
-0.272437
-0.268478
-0.240651
-0.206668
-0.178061
-0.159663
-0.151287
-0.149906
-0.152012
-0.154906
-0.157206
-0.158401
-0.158468
-0.157642
-0.15619
-0.154407
-0.152552
-0.150912
-0.149534
-0.14844
-0.14751
-0.146634
-0.145724
-0.144841
-0.144023
-0.143303
-0.142571
-0.141682
-0.140366
-0.138507
-0.136188
-0.133754
-0.131612
-0.130177
-0.129551
-0.129591
-0.129669
-0.129196
-0.127647
-0.124833
-0.120958
-0.116624
-0.112546
-0.10939
-0.107645
-0.107491
-0.108711
-0.110903
-0.113533
-0.116043
-0.118003
-0.119144
-0.119401
-0.11888
-0.117757
-0.116261
-0.114594
-0.112825
-0.111007
-0.109129
-0.107276
-0.105442
-0.103817
-0.102514
-0.101704
-0.101403
-0.101582
-0.102073
-0.102634
-0.103213
-0.10384
-0.104664
-0.106097
-0.108588
-0.112407
-0.117601
-0.123827
-0.130387
-0.136448
-0.141166
-0.143992
-0.144622
-0.142893
-0.138746
-0.132072
-0.122699
-0.110571
-0.0958338
-0.0790077
-0.0608843
-0.0423707
-0.0244379
-0.00774467
0.00736698
0.0208168
0.0328068
0.0436723
0.0536546
0.0629504
0.0716618
0.0798287
0.0874533
0.0945458
0.10115
0.107336
0.113101
0.118362
0.123083
0.127124
0.130422
0.133012
0.134888
0.13612
0.136632
0.136342
0.135178
0.133101
0.130268
0.126976
0.123677
0.120778
0.118551
0.117134
0.116429
0.116205
0.116214
0.116201
0.115952
0.115336
0.114259
0.112698
0.11073
0.108508
0.106196
0.103981
0.102044
0.100485
0.0993487
0.0985088
0.0977026
0.0964658
0.0943282
0.0909747
0.0863497
0.080865
0.0752251
0.0701921
0.0664631
0.0641908
0.0630867
0.0625551
0.0619273
0.0606569
0.0586206
0.0560707
0.0534328
0.0512546
0.0497676
0.0489154
0.0482343
0.0472273
0.0453981
0.0425721
0.0389356
0.0348874
0.0309711
0.0275652
0.0248077
0.0225538
0.0205868
0.0186792
0.0167749
0.0150584
0.0136988
0.0128017
0.0122574
0.0117417
0.0107856
0.00907049
0.00639415
0.00295535
-0.000861726
-0.00455108
-0.00768243
-0.00995742
-0.0112684
-0.011701
-0.0114022
-0.010575
-0.00941757
-0.00803942
-0.00660726
-0.00521608
-0.00405263
-0.00328403
-0.00312634
-0.00367468
-0.00487189
-0.00637526
-0.00756695
-0.00774731
-0.0061799
-0.00240823
0.00372455
0.0118338
0.0212288
0.0309703
0.040215
0.0482565
0.0548441
0.0600357
0.0642935
0.0681989
0.0723252
0.0771212
0.0826318
0.0885587
0.0942477
0.098895
0.101826
0.102586
0.101029
0.097367
0.0920847
0.0857076
0.0789531
0.0726498
0.0677944
0.0653968
0.066024
0.0694617
0.0744884
0.0790607
0.0808953
0.0782789
0.0704746
0.0580857
0.0426354
0.0260461
0.0100665
-0.00427755
-0.0164419
-0.0263928
-0.0340619
-0.0393608
-0.0423545
-0.0432848
-0.0426331
-0.0411532
-0.0396233
-0.0385656
-0.0382628
-0.0387134
-0.039689
-0.0410518
-0.0426804
-0.0445101
-0.0465435
-0.0486534
-0.0505223
-0.0519003
-0.0525089
-0.0522628
-0.0514034
-0.0506837
-0.0516114
-0.0562049
-0.0668057
-0.0851541
-0.111985
-0.145857
-0.182273
-0.213585
-0.229356
-0.217324
-0.164941
-0.0619539
0.0962697
0.305224
0.548417
0.79694
1.01252
1.15506
1.19325
1.11425
0.929405
0.672766
0.392187
0.136021
-0.0598842
-0.180083
-0.229902
-0.229283
-0.203222
-0.173213
-0.151919
-0.142968
-0.143938
-0.150247
-0.157803
-0.164231
-0.168718
-0.171451
-0.172837
-0.173118
-0.172595
-0.171594
-0.170394
-0.169223
-0.168231
-0.167374
-0.166463
-0.165365
-0.163914
-0.162125
-0.159993
-0.157596
-0.154996
-0.15229
-0.149478
-0.146606
-0.143729
-0.140912
-0.138306
-0.136054
-0.13429
-0.13296
-0.132073
-0.131394
-0.130812
-0.130293
-0.129869
-0.129592
-0.129506
-0.129472
-0.129214
-0.128364
-0.126745
-0.124247
-0.121085
-0.117542
-0.114051
-0.110927
-0.108359
-0.10641
-0.105084
-0.104223
-0.103584
-0.102931
-0.101994
-0.100656
-0.0989817
-0.0972269
-0.0957718
-0.0950954
-0.0954247
-0.0969028
-0.0994079
-0.102646
-0.106166
-0.109417
-0.111921
-0.113353
-0.113475
-0.112398
-0.110447
-0.108173
-0.106137
-0.104906
-0.104853
-0.106012
-0.107996
-0.110059
-0.111202
-0.110332
-0.106598
-0.0994665
-0.0889147
-0.0755271
-0.0601516
-0.0437228
-0.0271397
-0.0110105
0.00432482
0.0187206
0.0321494
0.0445849
0.0559207
0.0661715
0.0753103
0.083327
0.0904278
0.0967026
0.10215
0.106753
0.110354
0.112793
0.113957
0.113949
0.11305
0.111682
0.11033
0.109319
0.108722
0.108444
0.108218
0.107774
0.10695
0.105755
0.104239
0.102464
0.100423
0.0979439
0.09504
0.0915801
0.087698
0.0836788
0.0797382
0.076271
0.0734485
0.0713497
0.0699141
0.0689415
0.0682104
0.0675038
0.0666346
0.0655245
0.0641563
0.0625619
0.0608551
0.0591474
0.0576075
0.0563123
0.0552746
0.0542949
0.0530922
0.0514537
0.049245
0.0465211
0.0435036
0.0404643
0.0374921
0.034544
0.0314481
0.0279021
0.0239038
0.0195648
0.0151731
0.0111121
0.0076872
0.00500167
0.00303971
0.00165308
0.000668059
4.03281e-5
-0.000280006
-0.000284598
-5.69185e-6
0.000493705
0.00107357
0.00162781
0.0020919
0.00242226
0.00268051
0.00300111
0.00337876
0.00380261
0.00407124
0.00398353
0.00325132
0.00170435
-0.000641651
-0.00358206
-0.00678088
-0.00987206
-0.0125469
-0.0146794
-0.0162849
-0.0173286
-0.017749
-0.0173576
-0.0157759
-0.0125677
-0.00745385
-0.000406636
0.008305
0.0180824
0.0280881
0.0375238
0.0457876
0.0527502
0.0585951
0.0638612
0.0691595
0.0748583
0.0810125
0.0873204
0.0930917
0.0975173
0.0998767
0.0997876
0.0972169
0.0925823
0.0866137
0.0801298
0.0739458
0.0687338
0.0649095
0.0627284
0.0624214
0.0639336
0.0667223
0.0696876
0.0713153
0.0700261
0.0646594
0.0547747
0.0410095
0.0247542
0.00787492
-0.00784384
-0.0210366
-0.0311925
-0.0384044
-0.0433097
-0.0468024
-0.0498581
-0.0531451
-0.0569932
-0.0611734
-0.0651373
-0.068164
-0.0697454
-0.0696433
-0.0680359
-0.0655147
-0.0627778
-0.0604529
-0.0588849
-0.0579952
-0.0574918
-0.056969
-0.0562444
-0.0555117
-0.0553939
-0.0570452
-0.0620041
-0.0719617
-0.0883463
-0.111929
-0.142398
-0.177438
-0.211961
-0.238019
-0.244737
-0.219496
-0.149981
-0.0276176
0.148301
0.366948
0.604153
0.824631
0.988499
1.06141
1.02493
0.883406
0.664111
0.409972
0.167475
-0.0262237
-0.152168
-0.211385
-0.220038
-0.200858
-0.174449
-0.154038
-0.144229
-0.143405
-0.147428
-0.15239
-0.15605
-0.157814
-0.158156
-0.157772
-0.157182
-0.156635
-0.156074
-0.155409
-0.154409
-0.152905
-0.150739
-0.147923
-0.144647
-0.141153
-0.137656
-0.134359
-0.131364
-0.128752
-0.126527
-0.124659
-0.12303
-0.121477
-0.119808
-0.117932
-0.115885
-0.113848
-0.112054
-0.11072
-0.109913
-0.109539
-0.109323
-0.1091
-0.108726
-0.108215
-0.107639
-0.106963
-0.106074
-0.104688
-0.102617
-0.0998212
-0.0966037
-0.0935469
-0.0912354
-0.0900601
-0.0900718
-0.090867
-0.0918454
-0.0924993
-0.0924934
-0.0918915
-0.091056
-0.0903825
-0.0902303
-0.0906832
-0.0915482
-0.0925351
-0.0933081
-0.0936304
-0.093421
-0.0927212
-0.0917002
-0.0905711
-0.0895683
-0.0889902
-0.0890139
-0.0897504
-0.0911855
-0.0931012
-0.0950764
-0.0966932
-0.0974731
-0.0971415
-0.0955898
-0.0927303
-0.0885429
-0.0827614
-0.0748665
-0.0642455
-0.0503877
-0.0331889
-0.0131528
0.00862001
0.0305072
0.0508777
0.0684477
0.0825331
0.0930661
0.1005
0.105585
0.109063
0.111502
0.113323
0.114814
0.116175
0.117407
0.118539
0.11948
0.120117
0.120296
0.119947
0.119046
0.11765
0.115789
0.113494
0.110868
0.108081
0.105315
0.102884
0.101089
0.100177
0.100039
0.100341
0.100624
0.100396
0.0992561
0.0971597
0.0943498
0.0911975
0.0880119
0.0849313
0.0819028
0.0786761
0.0749315
0.0704202
0.0650059
0.0586869
0.0516478
0.0442707
0.0371113
0.0308215
0.0259365
0.022797
0.0214609
0.0214606
0.0219741
0.0220647
0.0210903
0.018792
0.0155389
0.0120692
0.00928324
0.00778132
0.00768174
0.00852261
0.00955692
0.0100059
0.0093993
0.007715
0.00531337
0.00269281
0.000355198
-0.00144511
-0.00267296
-0.00355793
-0.00446638
-0.00581552
-0.00779045
-0.0105549
-0.0140283
-0.0179028
-0.0216876
-0.0248569
-0.0269047
-0.027383
-0.0261775
-0.0234494
-0.0196525
-0.0155513
-0.0120144
-0.00984179
-0.00948002
-0.0108565
-0.0133887
-0.0160435
-0.0175806
-0.0169298
-0.013512
-0.0073652
0.000903128
0.0102857
0.019755
0.0284969
0.0359486
0.0420337
0.0469519
0.0511022
0.0549244
0.0589332
0.0633897
0.0683731
0.0736274
0.0787849
0.0833287
0.0868148
0.0887201
0.0887166
0.0865146
0.0820542
0.0756423
0.0682228
0.0612581
0.0564197
0.0549907
0.0571337
0.0616005
0.0659773
0.0674179
0.0635403
0.0533234
0.037289
0.0172737
-0.0042341
-0.0247959
-0.0424957
-0.0561536
-0.0653041
-0.0698213
-0.0701983
-0.0672367
-0.0621131
-0.0560839
-0.0503434
-0.045695
-0.0425476
-0.0408352
-0.0403588
-0.0409586
-0.0424235
-0.0446689
-0.0474717
-0.050403
-0.0529626
-0.0547075
-0.055415
-0.0553141
-0.0550295
-0.0556157
-0.0584081
-0.0646257
-0.0753277
-0.0911105
-0.112039
-0.137684
-0.166536
-0.195687
-0.220325
-0.233348
-0.225268
-0.18517
-0.10276
0.0281968
0.206004
0.417766
0.638439
0.833931
0.968025
1.01184
0.952784
0.79946
0.580492
0.336834
0.110458
-0.0666968
-0.179611
-0.230889
-0.235905
-0.21529
-0.187533
-0.164474
-0.150642
-0.145273
-0.14523
-0.147379
-0.149835
-0.151937
-0.1535
-0.154378
-0.15414
-0.152311
-0.14869
-0.143683
-0.138191
-0.13334
-0.129974
-0.128334
-0.127945
-0.127718
-0.126645
-0.124011
-0.11974
-0.114461
-0.109266
-0.105307
-0.103489
-0.104236
-0.10749
-0.112642
-0.118715
-0.124532
-0.128897
-0.130832
-0.129896
-0.126169
-0.120221
-0.113022
-0.105737
-0.0994093
-0.0949148
-0.0928334
-0.0933328
-0.0961048
-0.100354
-0.104967
-0.108593
-0.110175
-0.109186
-0.105779
-0.100914
-0.0958376
-0.0917546
-0.0895542
-0.0893433
-0.0906991
-0.0927765
-0.0945615
-0.0953859
-0.0950157
-0.0937069
-0.0919993
-0.0906237
-0.0899845
-0.0901807
-0.0910005
-0.0920798
-0.0931619
-0.0943531
-0.0959712
-0.0984816
-0.102248
-0.107267
-0.113188
-0.119282
-0.124778
-0.128972
-0.131455
-0.132087
-0.130781
-0.127563
-0.1223
-0.114768
-0.104865
-0.0926245
-0.0784578
-0.0630926
-0.0475759
-0.0328256
-0.0195311
-0.00789282
0.00229906
0.0115861
0.0204772
0.029352
0.038224
0.046917
0.0551123
0.0626412
0.0695258
0.0758545
0.0818102
0.0874829
0.0927874
0.0974513
0.101169
0.103741
0.105058
0.105363
0.104796
0.103607
0.102
0.0999283
0.0972915
0.09405
0.0903165
0.086431
0.0830082
0.0806003
0.0795658
0.0797778
0.0808823
0.0822338
0.0834067
0.0841394
0.0845489
0.0848366
0.0851473
0.0853615
0.085122
0.0839748
0.0814852
0.0774037
0.0719577
0.0654952
0.0590831
0.0538122
0.0506581
0.0502226
0.0523767
0.0561614
0.0599718
0.0620619
0.0610562
0.0564629
0.048813
0.0395147
0.0302902
0.0228216
0.018156
0.0164867
0.0171059
0.0188242
0.0202316
0.0204053
0.0190806
0.0166969
0.0141972
0.012531
0.0122323
0.0132481
0.014814
0.0159391
0.0157178
0.0136252
0.00970131
0.004291
-0.00202821
-0.00857929
-0.0147391
-0.0198526
-0.0232612
-0.0244734
-0.0233361
-0.0201236
-0.0156311
-0.010856
-0.00674701
-0.00380731
-0.00202988
-0.00103038
-0.000215753
0.000924163
0.00263983
0.00494683
0.00763577
0.0105424
0.0136572
0.0170412
0.0208069
0.0251151
0.0297928
0.0345328
0.0388527
0.0422919
0.0449121
0.0473063
0.0504019
0.0551833
0.0622052
0.0710461
0.0804366
0.0885209
0.0934982
0.0941787
0.0904279
0.0830246
0.0734429
0.0633354
0.054304
0.047641
0.0442441
0.0445514
0.0482911
0.0544228
0.0611705
0.0661371
0.0669284
0.061714
0.0499844
0.0328033
0.0124549
-0.00829904
-0.0268477
-0.0415434
-0.0519735
-0.0586667
-0.0625535
-0.0644531
-0.0646971
-0.0632309
-0.0599467
-0.0550626
-0.0493975
-0.0440546
-0.0402768
-0.0388139
-0.0397549
-0.0424331
-0.0457747
-0.0486382
-0.0503099
-0.0507556
-0.050612
-0.0509772
-0.0534603
-0.0598284
-0.071786
-0.0903874
-0.115661
-0.145863
-0.177074
-0.20338
-0.217925
-0.214269
-0.187975
-0.137733
-0.0652144
0.0261343
0.133085
0.254079
0.389479
0.539784
0.702634
0.869079
1.02175
1.13606
1.1856
1.15015
1.02354
0.817904
0.56267
0.297281
0.0609148
-0.117865
-0.227377
-0.273133
-0.272872
-0.248741
-0.219764
-0.197613
-0.186068
-0.183296
-0.185064
-0.187522
-0.188396
-0.187226
-0.184657
-0.181646
-0.17899
-0.177106
-0.176024
-0.175487
-0.174943
-0.173863
-0.171926
-0.169119
-0.165813
-0.162523
-0.159871
-0.158318
-0.157945
-0.158505
-0.159459
-0.160129
-0.15991
-0.158355
-0.155501
-0.151625
-0.147373
-0.143199
-0.139482
-0.136264
-0.13349
-0.130886
-0.128352
-0.125951
-0.12398
-0.122706
-0.122317
-0.122859
-0.124115
-0.125802
-0.12756
-0.129171
-0.130482
-0.131445
-0.132054
-0.132278
-0.132135
-0.131615
-0.130669
-0.129467
-0.128085
-0.126701
-0.125406
-0.124272
-0.123335
-0.122702
-0.122333
-0.122332
-0.12277
-0.123685
-0.125087
-0.126924
-0.129209
-0.131964
-0.135332
-0.139467
-0.144536
-0.150573
-0.157325
-0.164267
-0.170623
-0.175514
-0.178234
-0.178411
-0.175952
-0.170957
-0.163635
-0.154101
-0.142318
-0.128303
-0.112273
-0.0947996
-0.0768527
-0.0596091
-0.0439858
-0.0304886
-0.0189278
-0.00857286
0.00153515
0.0123183
0.0241716
0.0370799
0.0504275
0.0635577
0.0756843
0.0863374
0.0953164
0.102551
0.108235
0.112774
0.116491
0.119755
0.122928
0.126159
0.12949
0.132793
0.135731
0.137975
0.139179
0.139133
0.137738
0.135132
0.131521
0.127193
0.122488
0.11766
0.113013
0.108726
0.105128
0.102288
0.100292
0.0990433
0.0983569
0.0979842
0.0976337
0.0970784
0.0961218
0.0946278
0.0925527
0.0900099
0.0871256
0.0841505
0.0813612
0.0788723
0.0767054
0.0746763
0.0725033
0.0698953
0.0666362
0.0626888
0.0582508
0.0536196
0.0491865
0.0453867
0.0424261
0.0404358
0.0394194
0.0392608
0.0397197
0.0404744
0.0412053
0.0415364
0.0412289
0.0402403
0.0386349
0.0366514
0.034518
0.0323829
0.0302715
0.0281375
0.0258938
0.0235621
0.0213087
0.0193023
0.0178017
0.0169926
0.0168606
0.0173029
0.0181083
0.0189722
0.0196768
0.0200634
0.0200713
0.0198106
0.01942
0.0190742
0.0187992
0.0185494
0.0181499
0.0173875
0.0161205
0.0144008
0.0125506
0.0111912
0.010994
0.0125996
0.016338
0.0220972
0.0294158
0.0375363
0.0456917
0.0532896
0.060116
0.0662601
0.0721303
0.0781238
0.0844526
0.091079
0.0975634
0.103176
0.107124
0.108718
0.107664
0.104139
0.0987717
0.0925968
0.0866496
0.0817027
0.0781546
0.0758975
0.0747101
0.0742939
0.0747475
0.076431
0.0795072
0.0836883
0.0878746
0.0902074
0.0887575
0.0821115
0.0699737
0.0533902
0.0344373
0.0154482
-0.00152579
-0.0151927
-0.0252082
-0.0318651
-0.0357999
-0.0376873
-0.0381562
-0.0378556
-0.0373387
-0.0371684
-0.0377309
-0.039265
-0.0417746
-0.0449007
-0.0482181
-0.0511773
-0.0532009
-0.0539551
-0.0534163
-0.0518633
-0.050047
-0.0491771
-0.0509491
-0.057267
-0.0699565
-0.0901292
-0.117711
-0.150878
-0.185566
-0.215178
-0.231171
-0.22383
-0.183165
-0.100311
0.0305734
0.209791
0.429235
0.670387
0.904276
1.09475
1.20579
1.21113
1.10306
0.896958
0.628894
0.346349
0.0952714
-0.0918588
-0.20282
-0.245235
-0.239975
-0.211897
-0.181513
-0.160495
-0.151734
-0.152612
-0.15865
-0.166103
-0.173031
-0.178835
-0.183658
-0.187468
-0.189964
-0.190767
-0.189927
-0.187802
-0.185001
-0.182109
-0.17952
-0.177332
-0.175396
-0.173482
-0.171416
-0.169147
-0.166762
-0.164338
-0.162044
-0.160043
-0.158498
-0.157582
-0.157357
-0.157882
-0.158959
-0.160306
-0.161442
-0.161934
-0.161323
-0.159374
-0.156052
-0.151634
-0.146485
-0.141177
-0.136313
-0.132502
-0.130173
-0.129482
-0.130173
-0.131656
-0.133187
-0.133993
-0.133544
-0.131774
-0.129018
-0.125949
-0.123141
-0.121063
-0.119875
-0.119431
-0.119483
-0.119817
-0.120294
-0.120906
-0.121622
-0.122357
-0.123031
-0.123444
-0.123446
-0.12296
-0.122051
-0.120786
-0.119362
-0.117918
-0.116727
-0.116029
-0.116089
-0.117098
-0.119006
-0.121559
-0.124224
-0.126216
-0.126806
-0.125247
-0.121013
-0.113867
-0.103929
-0.0915344
-0.0774382
-0.0625175
-0.0477609
-0.0341405
-0.0222733
-0.0123757
-0.0042677
0.00271669
0.00948185
0.0168701
0.0255858
0.0358237
0.0473761
0.0595034
0.0714831
0.0825415
0.0922095
0.100332
0.10696
0.112254
0.116401
0.119474
0.121537
0.12272
0.123232
0.12326
0.123067
0.12273
0.122109
0.121016
0.119289
0.116879
0.113988
0.11095
0.108161
0.105892
0.104129
0.102728
0.101336
0.0998158
0.0981039
0.0963686
0.0947811
0.0934616
0.0924226
0.0915265
0.090523
0.0891915
0.0873818
0.084979
0.0820341
0.0786172
0.074845
0.0707954
0.0666879
0.0626742
0.058883
0.0554027
0.0522352
0.0492873
0.0464411
0.0435755
0.0406324
0.0375781
0.0344127
0.0311165
0.0275951
0.0237958
0.0198259
0.0158871
0.0123888
0.00970406
0.0080887
0.00748878
0.0075731
0.00783776
0.00767365
0.00661622
0.00441847
0.00116173
-0.00279016
-0.00690706
-0.0106428
-0.013583
-0.0155926
-0.0168224
-0.0176862
-0.01865
-0.0201004
-0.022151
-0.0246399
-0.0271775
-0.0293583
-0.030812
-0.0314208
-0.0311203
-0.0301081
-0.0285544
-0.0266915
-0.0246495
-0.022526
-0.0203725
-0.0182009
-0.0161091
-0.0143402
-0.0129903
-0.0122303
-0.0120168
-0.0119769
-0.0115639
-0.00998342
-0.00657977
-0.00103651
0.00641331
0.015059
0.0238208
0.0316612
0.0378498
0.0423094
0.0455427
0.0484359
0.0519079
0.0566016
0.0625044
0.0691675
0.0756416
0.0810182
0.0845546
0.0859038
0.0851092
0.0826109
0.0788426
0.0743064
0.0697005
0.0657237
0.0633883
0.063411
0.0660734
0.0706728
0.0756246
0.0787852
0.0780509
0.0721467
0.0610143
0.045812
0.0284551
0.0109919
-0.00496188
-0.0185078
-0.0292927
-0.0374229
-0.0431027
-0.0466818
-0.0484474
-0.0489459
-0.0486832
-0.048124
-0.047589
-0.0471842
-0.0468163
-0.0462979
-0.0456173
-0.0448585
-0.0442885
-0.0440722
-0.0442946
-0.0449561
-0.0459791
-0.0475127
-0.0500149
-0.0541901
-0.060907
-0.0707369
-0.0838545
-0.0998196
-0.11807
-0.138239
-0.160283
-0.184282
-0.20988
-0.235291
-0.256665
-0.267831
-0.260879
-0.226749
-0.156549
-0.0431425
0.116365
0.317833
0.547357
0.780295
0.983204
1.12004
1.16119
1.093
0.92378
0.683206
0.414897
0.164348
-0.0331663
-0.16069
-0.220715
-0.230203
-0.211894
-0.186205
-0.166062
-0.155945
-0.154353
-0.157401
-0.161334
-0.16396
-0.164669
-0.16382
-0.161935
-0.159463
-0.156626
-0.153675
-0.15074
-0.147991
-0.145487
-0.143182
-0.141006
-0.138995
-0.13712
-0.135401
-0.133779
-0.132146
-0.13043
-0.128539
-0.126597
-0.124747
-0.123217
-0.122163
-0.121654
-0.121583
-0.121725
-0.121829
-0.121678
-0.12108
-0.120054
-0.118653
-0.116944
-0.115066
-0.113054
-0.110977
-0.108946
-0.107055
-0.10541
-0.104117
-0.10318
-0.102554
-0.10213
-0.10189
-0.101801
-0.101887
-0.102023
-0.102076
-0.101786
-0.100987
-0.099624
-0.0978176
-0.0959369
-0.0943131
-0.0932192
-0.092748
-0.0926991
-0.0927952
-0.0927398
-0.0923128
-0.0915524
-0.0906258
-0.0897779
-0.0893431
-0.0895627
-0.0905051
-0.0921613
-0.0943501
-0.0968379
-0.0993358
-0.101569
-0.103327
-0.104448
-0.104783
-0.104054
-0.101895
-0.0978093
-0.0913717
-0.082303
-0.0707285
-0.0571568
-0.0425084
-0.0278751
-0.0141859
-0.0021701
0.00797377
0.0164108
0.0236348
0.0303036
0.0371232
0.0446088
0.0531112
0.0625317
0.0725463
0.0825625
0.0919492
0.100051
0.106608
0.11153
0.115074
0.117588
0.119491
0.121046
0.122354
0.123409
0.124113
0.124304
0.123896
0.122775
0.120863
0.118202
0.114886
0.111159
0.107349
0.103878
0.101121
0.0993505
0.0985152
0.0985303
0.0990446
0.0996453
0.0998425
0.0994509
0.0981258
0.0959446
0.0930735
0.0896902
0.086028
0.0821975
0.0782704
0.0742627
0.070286
0.0664685
0.0628942
0.0596183
0.0566778
0.0539379
0.0512503
0.0484869
0.0456417
0.0427969
0.0400788
0.0376214
0.035512
0.0336666
0.0319934
0.0303201
0.0286475
0.0268436
0.0249401
0.0229099
0.0206381
0.0180462
0.0149521
0.0113934
0.0074875
0.00363962
0.000190354
-0.00249203
-0.00427594
-0.00513261
-0.00548846
-0.00569834
-0.00616601
-0.00711906
-0.00858799
-0.0103671
-0.0121277
-0.0135887
-0.0145476
-0.0150489
-0.015281
-0.0154993
-0.0159943
-0.0168403
-0.0179076
-0.0189474
-0.0196431
-0.0198025
-0.0194211
-0.0187682
-0.0181437
-0.0179141
-0.0181459
-0.0187848
-0.0194874
-0.0200651
-0.0202073
-0.0199415
-0.0194385
-0.0189378
-0.0185844
-0.0184209
-0.0182472
-0.0175713
-0.0157896
-0.0122131
-0.00646691
0.00148875
0.0111428
0.021483
0.0314278
0.0400309
0.0468891
0.0521611
0.0565769
0.0610418
0.0662365
0.0724327
0.079256
0.0858266
0.0911397
0.0943522
0.0949236
0.0929123
0.0889365
0.0838286
0.0785397
0.0738456
0.070433
0.0687634
0.069113
0.0713691
0.0749441
0.078556
0.0804475
0.0789684
0.0729882
0.0624043
0.0482335
0.0324019
0.0169456
0.0034677
-0.00727049
-0.0155263
-0.022058
-0.0275376
-0.0323988
-0.0365718
-0.0397697
-0.0416742
-0.0423309
-0.0420285
-0.0412859
-0.0406509
-0.040549
-0.0412109
-0.042709
-0.0449072
-0.0477062
-0.0507761
-0.0536809
-0.0560278
-0.0573127
-0.0571682
-0.0556128
-0.0529771
-0.0498828
-0.0473074
-0.0465734
-0.0492217
-0.0569426
-0.0711504
-0.0925495
-0.120758
-0.153622
-0.187077
-0.214945
-0.229483
-0.222172
-0.184267
-0.107931
0.0120711
0.175962
0.376314
0.596168
0.808757
0.981083
1.08068
1.08417
0.985126
0.79782
0.554647
0.297953
0.068646
-0.104174
-0.208951
-0.251391
-0.249027
-0.223334
-0.192658
-0.168205
-0.153659
-0.147741
-0.147007
-0.148236
-0.149513
-0.150334
-0.150887
-0.151402
-0.152082
-0.152916
-0.153855
-0.154889
-0.155906
-0.156654
-0.156786
-0.155843
-0.153486
-0.14971
-0.144789
-0.139353
-0.134161
-0.129868
-0.126922
-0.125479
-0.125302
-0.125978
-0.127113
-0.128202
-0.128935
-0.129108
-0.128656
-0.127649
-0.126297
-0.124789
-0.123159
-0.121397
-0.119324
-0.116838
-0.114006
-0.111165
-0.108771
-0.107292
-0.106919
-0.107454
-0.108428
-0.109212
-0.109361
-0.10877
-0.107531
-0.106017
-0.104675
-0.103819
-0.103629
-0.104166
-0.105406
-0.10714
-0.109107
-0.110916
-0.112177
-0.112542
-0.111835
-0.110107
-0.107668
-0.104852
-0.102023
-0.0993815
-0.09703
-0.0949254
-0.0931002
-0.0915413
-0.0903528
-0.0896979
-0.0896736
-0.0903441
-0.0917772
-0.0938411
-0.0962212
-0.0984276
-0.0997333
-0.0992544
-0.0961511
-0.0899247
-0.0805031
-0.0684973
-0.0549306
-0.0411567
-0.0284931
-0.0180438
-0.0104053
-0.00571242
-0.0035712
-0.00326743
-0.00383708
-0.00444102
-0.00427123
-0.00279909
0.000291738
0.00506056
0.0112511
0.018516
0.0264043
0.0344242
0.042299
0.0498206
0.0569988
0.0638608
0.070488
0.0768851
0.0828314
0.088098
0.0923512
0.0953854
0.0971252
0.0977025
0.0975014
0.0969833
0.0965284
0.0963955
0.0966149
0.0969317
0.0970036
0.0965097
0.0952137
0.0931572
0.0905088
0.0876522
0.0849787
0.0828844
0.0814429
0.0805104
0.0795773
0.0778879
0.0747143
0.0696505
0.0628405
0.0550647
0.0476093
0.0417945
0.0386813
0.0387064
0.0413906
0.0455979
0.049866
0.0527935
0.0533664
0.051229
0.0467525
0.0407973
0.0345768
0.0292304
0.0256166
0.0239677
0.0239053
0.0246299
0.0252297
0.025104
0.0241895
0.0228721
0.0216304
0.0206797
0.01975
0.0180098
0.0145671
0.00888138
0.00107024
-0.00794555
-0.0169324
-0.0246205
-0.0301962
-0.0334629
-0.0347619
-0.0345323
-0.0333233
-0.0314518
-0.0290835
-0.0264154
-0.0237649
-0.0214587
-0.0198029
-0.0190038
-0.0189222
-0.01927
-0.0198015
-0.020423
-0.021189
-0.0223806
-0.024233
-0.0267939
-0.0299551
-0.0332512
-0.0362001
-0.0384081
-0.039601
-0.0397558
-0.0388588
-0.0369295
-0.0338336
-0.0293602
-0.0232113
-0.0152225
-0.00557455
0.00513662
0.0160644
0.0260423
0.034148
0.0399126
0.0434265
0.045412
0.0468765
0.0489572
0.0523467
0.0571929
0.0629272
0.0684092
0.072436
0.0740117
0.0728433
0.0693825
0.0646406
0.0597688
0.0554224
0.0517711
0.0484823
0.0451097
0.0416581
0.0387408
0.0373979
0.0386582
0.0428394
0.0491905
0.0558756
0.0605676
0.0610776
0.0559706
0.0449657
0.0288384
0.00921541
-0.011836
-0.0322463
-0.050231
-0.0644996
-0.0744561
-0.0801789
-0.0823251
-0.0819957
-0.0803881
-0.0783914
-0.0764928
-0.0747978
-0.0730986
-0.0711169
-0.0688192
-0.0663567
-0.0641851
-0.0629157
-0.062935
-0.0643081
-0.0667825
-0.0696725
-0.0723575
-0.0745289
-0.0766942
-0.0802831
-0.0874183
-0.100296
-0.120372
-0.147431
-0.178706
-0.208604
-0.229014
-0.229846
-0.200129
-0.129652
-0.0115005
0.154786
0.360113
0.583924
0.795304
0.957891
1.03843
1.01638
0.89122
0.684185
0.433445
0.183562
-0.0266184
-0.1735
-0.252502
-0.275056
-0.261539
-0.232923
-0.204492
-0.183632
-0.171178
-0.164459
-0.160479
-0.157491
-0.155324
-0.154595
-0.155762
-0.158529
-0.161765
-0.164215
-0.164762
-0.162897
-0.158775
-0.153077
-0.14674
-0.140676
-0.13554
-0.131685
-0.129206
-0.128072
-0.128109
-0.12925
-0.131288
-0.133854
-0.136338
-0.137967
-0.137954
-0.135869
-0.131771
-0.126354
-0.120669
-0.115907
-0.1129
-0.111974
-0.112918
-0.115079
-0.117714
-0.120201
-0.122191
-0.123685
-0.12485
-0.12581
-0.126574
-0.126972
-0.126713
-0.125632
-0.123818
-0.121401
-0.118692
-0.11596
-0.113344
-0.111059
-0.109301
-0.108354
-0.108491
-0.10981
-0.112002
-0.114452
-0.116554
-0.117745
-0.117981
-0.117355
-0.11627
-0.114924
-0.113438
-0.111822
-0.110272
-0.109359
-0.109835
-0.112562
-0.117952
-0.125856
-0.135352
-0.145086
-0.153483
-0.159201
-0.16142
-0.159869
-0.154897
-0.147201
-0.137698
-0.127153
-0.116176
-0.105056
-0.0937029
-0.0818536
-0.0691575
-0.0554961
-0.0408438
-0.0255472
-0.0100699
0.00504541
0.0192152
0.0320234
0.0432082
0.05287
0.0611809
0.0685223
0.0752363
0.0814851
0.08735
0.0928125
0.0977927
0.102373
0.106772
0.111168
0.115698
0.120236
0.124445
0.127951
0.130335
0.131351
0.131028
0.12947
0.126997
0.123986
0.120875
0.118016
0.115742
0.114233
0.113463
0.113168
0.112957
0.112363
0.111101
0.109139
0.106685
0.104084
0.10168
0.0997018
0.0981375
0.0968108
0.0955226
0.0941032
0.0925761
0.0909377
0.0893606
0.087853
0.086288
0.0845863
0.0826128
0.0802856
0.0776264
0.07474
0.071785
0.0688955
0.0662205
0.0637418
0.0614131
0.0591402
0.0568232
0.0544096
0.051916
0.0494513
0.0471959
0.0452825
0.043779
0.0427227
0.0419779
0.041417
0.0408232
0.0401768
0.0394521
0.0387773
0.0383194
0.0381825
0.0382637
0.0383679
0.0381866
0.0374543
0.0361169
0.034356
0.0324949
0.03089
0.0297318
0.0289764
0.0283348
0.0273767
0.0257932
0.0234396
0.0205317
0.0174906
0.0149376
0.0133434
0.0130533
0.0140726
0.0163351
0.0197029
0.0241169
0.0295959
0.0361735
0.0437039
0.0518359
0.0599913
0.0674596
0.0736169
0.0781524
0.0810656
0.0827381
0.0838516
0.0851293
0.0872073
0.0903697
0.0945032
0.099061
0.103314
0.106412
0.107819
0.107271
0.105012
0.101411
0.0971598
0.0929013
0.0892264
0.0866789
0.08575
0.0865735
0.0887595
0.0911978
0.0922933
0.0903146
0.0839913
0.0729429
0.057922
0.040475
0.0225994
0.00607513
-0.00787452
-0.0187283
-0.0264369
-0.0312583
-0.0336049
-0.0339655
-0.0330242
-0.0314801
-0.0300653
-0.0292458
-0.0293522
-0.0304581
-0.0325758
-0.0355828
-0.0394382
-0.0439411
-0.0488069
-0.0535069
-0.0574375
-0.0600577
-0.0610219
-0.0603366
-0.0584895
-0.0563864
-0.0556421
-0.0582029
-0.0662126
-0.0815255
-0.104979
-0.13558
-0.169638
-0.2002
-0.21741
-0.209392
-0.163735
-0.0700045
0.0771318
0.274414
0.507498
0.750013
0.966176
1.11712
1.17046
1.10993
0.941952
0.695606
0.415783
0.150859
-0.0601992
-0.197058
-0.260266
-0.266832
-0.241406
-0.207079
-0.179236
-0.163879
-0.15983
-0.16265
-0.167754
-0.172137
-0.17475
-0.175667
-0.175458
-0.174521
-0.173141
-0.171487
-0.169801
-0.168329
-0.167215
-0.166483
-0.166077
-0.165786
-0.165414
-0.164789
-0.163687
-0.162011
-0.159703
-0.15677
-0.153269
-0.149299
-0.145055
-0.140837
-0.13698
-0.133796
-0.131577
-0.130367
-0.129938
-0.129925
-0.129831
-0.129258
-0.127967
-0.126044
-0.123757
-0.121493
-0.119673
-0.118581
-0.118272
-0.118662
-0.11953
-0.120601
-0.121657
-0.122547
-0.123184
-0.123489
-0.123439
-0.122985
-0.122108
-0.12082
-0.119328
-0.117971
-0.117
-0.116641
-0.117029
-0.118094
-0.119577
-0.121164
-0.122579
-0.123673
-0.124494
-0.125243
-0.126225
-0.127636
-0.129474
-0.131565
-0.133571
-0.135167
-0.136191
-0.136614
-0.136602
-0.136308
-0.135673
-0.1344
-0.131906
-0.127513
-0.120442
-0.110067
-0.0961652
-0.0789523
-0.0590935
-0.0377424
-0.0162287
0.00406694
0.0221192
0.0374392
0.0501118
0.0605877
0.0696097
0.0777615
0.0854575
0.0927618
0.0994715
0.105418
0.110555
0.114975
0.11902
0.123004
0.127101
0.131306
0.135367
0.138916
0.141491
0.142752
0.142537
0.140897
0.138044
0.134408
0.130335
0.126296
0.122667
0.119711
0.117463
0.115855
0.114541
0.113206
0.111416
0.109045
0.106261
0.103453
0.101009
0.0993366
0.0984156
0.0980059
0.0976797
0.0969482
0.0954957
0.0931428
0.0899091
0.0858521
0.0811933
0.0761324
0.0710357
0.0663007
0.0622992
0.0591879
0.0568247
0.0548102
0.0526166
0.0498145
0.0462468
0.0420907
0.0378248
0.0340269
0.0310535
0.0290504
0.0279669
0.0273976
0.0270766
0.0267187
0.0261326
0.0252537
0.0240041
0.0223431
0.0202179
0.017698
0.0147374
0.0114804
0.00801526
0.00446471
0.000928927
-0.00252183
-0.00574443
-0.0085558
-0.0106876
-0.0119443
-0.0120955
-0.0111352
-0.00929948
-0.00699868
-0.00469609
-0.00287064
-0.00174217
-0.00111948
-0.000600754
0.00047036
0.00280568
0.00691488
0.0129856
0.0207246
0.0294462
0.0381495
0.0459369
0.0521166
0.0564727
0.0593593
0.0614296
0.063502
0.0661262
0.0694943
0.0733735
0.0772998
0.0806736
0.0829509
0.0838354
0.0832223
0.0812392
0.0782565
0.0746992
0.0710386
0.067692
0.0648962
0.0629284
0.0619786
0.0622964
0.0640654
0.0671032
0.0707147
0.0736647
0.0743846
0.0713888
0.0636852
0.0512479
0.0350127
0.0167419
-0.00148611
-0.0178064
-0.0308398
-0.0400304
-0.0454172
-0.0476563
-0.0477157
-0.0466267
-0.0453844
-0.0446311
-0.0447592
-0.0457953
-0.0475841
-0.0499558
-0.0526688
-0.0554028
-0.0579279
-0.0597972
-0.06063
-0.0602825
-0.0589012
-0.0571015
-0.0561451
-0.0578433
-0.0643157
-0.0774704
-0.0985407
-0.127186
-0.160868
-0.194119
-0.21888
-0.225093
-0.201904
-0.139008
-0.0286038
0.132135
0.33824
0.574465
0.814459
1.02302
1.16242
1.2018
1.12704
0.9468
0.692236
0.409409
0.146551
-0.0588438
-0.188767
-0.246062
-0.2491
-0.222797
-0.189499
-0.163324
-0.149303
-0.146024
-0.149175
-0.154755
-0.160265
-0.164777
-0.16826
-0.170826
-0.172446
-0.173096
-0.172878
-0.172121
-0.171191
-0.1704
-0.169948
-0.169852
-0.170031
-0.170296
-0.170461
-0.170334
-0.169669
-0.168252
-0.166003
-0.162897
-0.159143
-0.155107
-0.151178
-0.147716
-0.145007
-0.142999
-0.14152
-0.140217
-0.138677
-0.136639
-0.13393
-0.130736
-0.127329
-0.124235
-0.121916
-0.120761
-0.120873
-0.122002
-0.123718
-0.125527
-0.126972
-0.127889
-0.128222
-0.128005
-0.12722
-0.125909
-0.123985
-0.121509
-0.118707
-0.115861
-0.113323
-0.111397
-0.110138
-0.109522
-0.109449
-0.109775
-0.110448
-0.111339
-0.112432
-0.113608
-0.114743
-0.115739
-0.116402
-0.116719
-0.116601
-0.116047
-0.115134
-0.113873
-0.112403
-0.110777
-0.109105
-0.107316
-0.105198
-0.102254
-0.0977398
-0.0908832
-0.0809913
-0.0677584
-0.0514208
-0.0328713
-0.0134096
0.00538122
0.0221037
0.0359018
0.0465234
0.0544139
0.0604222
0.0655865
0.0706167
0.0759602
0.0815256
0.0870298
0.092137
0.0965374
0.10021
0.103169
0.105511
0.107276
0.108455
0.10901
0.10896
0.108424
0.107591
0.106731
0.105968
0.105358
0.104761
0.104039
0.103034
0.101657
0.100088
0.0984922
0.0970158
0.0956434
0.0942389
0.092498
0.0901973
0.0872464
0.0837816
0.0801299
0.0766582
0.0737291
0.0713723
0.0694369
0.0675904
0.0654614
0.0626335
0.0589218
0.0542931
0.0489054
0.043178
0.0375587
0.032511
0.0283095
0.0251141
0.0227732
0.0209432
0.0193211
0.0176913
0.0160286
0.0144321
0.012959
0.0115993
0.0101634
0.00838038
0.00613189
0.00349246
0.000628764
-0.00208134
-0.00434336
-0.00608899
-0.00752241
-0.00883136
-0.010273
-0.0118639
-0.0134313
-0.0147035
-0.0154384
-0.0155682
-0.0151782
-0.0144844
-0.0136909
-0.0129506
-0.0122975
-0.0117508
-0.0113754
-0.0113823
-0.0119537
-0.0132376
-0.0151834
-0.0175542
-0.0199904
-0.0220848
-0.0234331
-0.0237463
-0.0227535
-0.0201303
-0.0155657
-0.00895463
-0.000399415
0.0095294
0.0200697
0.0302202
0.0392603
0.0468556
0.0531386
0.0585651
0.0637413
0.069066
0.0745516
0.0797871
0.0841254
0.0869284
0.0877081
0.0862398
0.0825634
0.077024
0.0702746
0.0632793
0.0572443
0.0535688
0.0532419
0.0565689
0.0626492
0.0695758
0.0748163
0.0760612
0.0718038
0.0619653
0.0477042
0.0309965
0.0140874
-0.00128239
-0.0140881
-0.0240669
-0.0314734
-0.0367389
-0.0403315
-0.0426084
-0.043864
-0.0443178
-0.0442192
-0.0438384
-0.0435215
-0.0436007
-0.0443559
-0.0459653
-0.0484011
-0.0514921
-0.0547641
-0.0576945
-0.0596975
-0.0602726
-0.0591582
-0.056575
-0.0530491
-0.0495698
-0.0476823
-0.0492676
-0.0564076
-0.0708179
-0.0933839
-0.123645
-0.158871
-0.193654
-0.219903
-0.227527
-0.205129
-0.141831
-0.0296657
0.133356
0.340201
0.572543
0.801183
0.989732
1.10235
1.11337
1.01569
0.82465
0.575199
0.312823
0.0808448
-0.0907297
-0.191274
-0.228613
-0.222684
-0.196549
-0.169013
-0.150359
-0.142873
-0.14387
-0.149078
-0.154881
-0.159503
-0.162485
-0.164056
-0.164348
-0.163476
-0.161519
-0.158767
-0.155615
-0.152538
-0.14985
-0.147651
-0.14574
-0.143873
-0.141838
-0.139581
-0.137244
-0.135028
-0.133242
-0.131965
-0.131221
-0.130789
-0.130413
-0.129821
-0.128723
-0.126984
-0.124661
-0.121948
-0.119086
-0.116252
-0.113565
-0.111042
-0.10859
-0.106233
-0.104062
-0.102258
-0.101061
-0.10059
-0.10079
-0.101403
-0.102064
-0.102416
-0.102285
-0.101673
-0.10073
-0.0996459
-0.0986323
-0.0978074
-0.0973073
-0.0971293
-0.0972939
-0.0977521
-0.0982758
-0.0984314
-0.0978044
-0.0960766
-0.0932777
-0.0897882
-0.0863791
-0.083785
-0.0825749
-0.0829326
-0.0846582
-0.0872077
-0.0900741
-0.0927964
-0.0950859
-0.0968226
-0.0979401
-0.0985151
-0.0985169
-0.0980717
-0.0972198
-0.0959854
-0.094037
-0.0908867
-0.0856435
-0.0773343
-0.0651736
-0.0489504
-0.0290788
-0.00678261
0.0161653
0.037852
0.0566392
0.0714618
0.082018
0.0887041
0.0924018
0.0940341
0.0944622
0.0943256
0.0937844
0.0928301
0.0913541
0.089475
0.0873897
0.0855691
0.0844273
0.0842627
0.084941
0.0861695
0.087432
0.0882118
0.0882448
0.0876733
0.0867649
0.0860265
0.085735
0.0858873
0.0862091
0.0862725
0.0857377
0.0844283
0.0824798
0.080215
0.0780457
0.0760775
0.0742966
0.0725017
0.0703652
0.0677148
0.0645634
0.0609965
0.0572634
0.0535507
0.0500262
0.0467012
0.0435307
0.0404993
0.0375452
0.0346228
0.0318222
0.0291801
0.0268675
0.0249677
0.0235001
0.0222615
0.020985
0.0192663
0.0167763
0.0133808
0.00914043
0.00435943
-0.0005921
-0.0054248
-0.0097897
-0.0134601
-0.0162187
-0.0177986
-0.0181271
-0.0173706
-0.016005
-0.0147208
-0.0141623
-0.0147052
-0.0162266
-0.0180741
-0.0194228
-0.0194987
-0.0179954
-0.0150911
-0.0114436
-0.00789258
-0.00531006
-0.00414659
-0.00453614
-0.00617541
-0.00850747
-0.0110495
-0.0135384
-0.0159829
-0.0185815
-0.0215107
-0.0246543
-0.0274657
-0.0290705
-0.0286094
-0.0255399
-0.0198106
-0.0121177
-0.00345923
0.00520976
0.0132761
0.0207455
0.0280319
0.0357239
0.0442627
0.0536072
0.0631748
0.0720075
0.0789815
0.0831938
0.0841251
0.0817901
0.0766767
0.069715
0.0620141
0.0547324
0.0490471
0.0459408
0.0460652
0.0494078
0.0551804
0.0616983
0.0666059
0.0675961
0.0629897
0.0522936
0.0365544
0.0178665
-0.00118131
-0.0182338
-0.0318953
-0.0417892
-0.0481134
-0.0515436
-0.0528279
-0.0525746
-0.0513644
-0.0497717
-0.0483758
-0.0477505
-0.0483056
-0.0502334
-0.0534729
-0.0577591
-0.0626913
-0.0677274
-0.0722464
-0.0755586
-0.0770785
-0.0766431
-0.0744293
-0.0712853
-0.0687244
-0.0686473
-0.0730528
-0.083695
-0.101573
-0.126479
-0.156811
-0.189269
-0.21916
-0.241143
-0.250259
-0.242891
-0.217315
-0.173449
-0.111943
-0.0327894
0.065575
0.185885
0.3301
0.496509
0.676441
0.852674
1.00053
1.09266
1.10581
1.02866
0.866825
0.643129
0.392806
0.154309
-0.0404162
-0.173426
-0.243237
-0.262009
-0.249022
-0.223555
-0.199366
-0.182915
-0.174539
-0.171412
-0.170231
-0.168929
-0.167181
-0.165563
-0.164776
-0.165248
-0.166759
-0.168807
-0.170754
-0.172091
-0.172423
-0.171549
-0.169385
-0.165896
-0.16137
-0.156248
-0.151234
-0.147069
-0.144188
-0.142668
-0.142262
-0.14237
-0.142504
-0.142401
-0.142233
-0.142418
-0.14342
-0.145382
-0.147989
-0.150611
-0.152506
-0.153049
-0.152014
-0.149611
-0.146315
-0.142734
-0.139437
-0.136763
-0.134842
-0.133553
-0.132563
-0.131511
-0.130074
-0.127983
-0.125336
-0.122432
-0.11974
-0.117864
-0.117098
-0.117502
-0.118732
-0.120089
-0.120837
-0.120449
-0.11884
-0.116406
-0.113935
-0.11233
-0.112391
-0.11444
-0.118291
-0.123431
-0.129159
-0.134855
-0.140108
-0.144846
-0.149135
-0.153044
-0.156587
-0.159741
-0.16236
-0.164289
-0.16532
-0.165238
-0.163811
-0.160698
-0.155522
-0.14799
-0.137874
-0.125336
-0.11079
-0.0950756
-0.0791614
-0.0640736
-0.0505182
-0.0387889
-0.0288354
-0.020149
-0.0120516
-0.00390914
0.00472689
0.0141735
0.0245658
0.0358913
0.0479681
0.0604607
0.0727734
0.0841434
0.0937672
0.101058
0.105594
0.107372
0.106587
0.10368
0.0991663
0.0937463
0.0881137
0.0830901
0.0793508
0.0773184
0.0769453
0.0777593
0.0790749
0.0802729
0.081118
0.0816992
0.0824436
0.0836755
0.0854653
0.0874777
0.0891603
0.0898773
0.0893666
0.0876878
0.0851635
0.0822182
0.0792348
0.0762176
0.0729381
0.0690738
0.0644019
0.0589752
0.0533215
0.048222
0.0444929
0.042738
0.0429725
0.0445921
0.0466277
0.0480398
0.0480202
0.0463979
0.0434461
0.0398352
0.0361585
0.0327623
0.0295497
0.0262786
0.0227345
0.0189148
0.0151652
0.0120394
0.0101052
0.00954199
0.0101397
0.0112175
0.0119148
0.0114412
0.00930997
0.00555863
0.000680452
-0.0045276
-0.00910967
-0.0122704
-0.0135329
-0.0130123
-0.0111377
-0.00866197
-0.0062885
-0.00447855
-0.00340816
-0.0029217
-0.00270917
-0.00251674
-0.0024418
-0.0028022
-0.00397848
-0.00612028
-0.00909758
-0.012145
-0.0141535
-0.0140519
-0.011107
-0.00520847
0.00306078
0.0127105
0.0226882
0.0321642
0.0405849
0.0477083
0.0532686
0.057232
0.0596065
0.0606989
0.0611663
0.0618869
0.063801
0.0674264
0.0726698
0.0786965
0.0841805
0.0878501
0.0888724
0.0871901
0.0835183
0.0788872
0.0741502
0.0697121
0.0654557
0.0609656
0.0561268
0.0513415
0.0475203
0.0455322
0.0456916
0.0472036
0.048488
0.0475139
0.0427077
0.0335416
0.0207555
0.00605548
-0.00852065
-0.0211705
-0.0308966
-0.037517
-0.0414255
-0.043469
-0.0444537
-0.0451327
-0.0459157
-0.0469084
-0.0478518
-0.0483014
-0.0478498
-0.0463848
-0.0441822
-0.0418642
-0.0403046
-0.0401188
-0.0414301
-0.0438298
-0.0465089
-0.0486433
-0.0498794
-0.0504536
-0.0513459
-0.0539903
-0.0597271
-0.0697004
-0.0844779
-0.103971
-0.127634
-0.154079
-0.181035
-0.205344
-0.223234
-0.230827
-0.224874
-0.203166
-0.164704
-0.108619
-0.0330973
0.0653342
0.191206
0.347264
0.53045
0.728346
0.91777
1.06765
1.14631
1.13087
1.01562
0.815879
0.564972
0.305448
0.0774397
-0.0915734
-0.191928
-0.230793
-0.226401
-0.200014
-0.169168
-0.144253
-0.128667
-0.121136
-0.118556
-0.11811
-0.118086
-0.117902
-0.117513
-0.116998
-0.116381
-0.115615
-0.114643
-0.113366
-0.111714
-0.10981
-0.107781
-0.105922
-0.104609
-0.104061
-0.104281
-0.105041
-0.105929
-0.106519
-0.106548
-0.105937
-0.104852
-0.103589
-0.102312
-0.10112
-0.0998184
-0.0982627
-0.0964169
-0.094308
-0.0922512
-0.090534
-0.0894269
-0.0889103
-0.0888492
-0.0889697
-0.0891375
-0.0892636
-0.0894954
-0.0900243
-0.090884
-0.0919955
-0.0931464
-0.09409
-0.0945556
-0.0944665
-0.0937841
-0.0926592
-0.0913322
-0.0900124
-0.0889197
-0.0882266
-0.0880302
-0.0882946
-0.0888899
-0.0896929
-0.0905756
-0.0915636
-0.0926786
-0.0940295
-0.0956113
-0.0973042
-0.0989347
-0.100341
-0.101575
-0.102826
-0.104541
-0.107221
-0.111171
-0.116366
-0.122523
-0.12903
-0.135304
-0.140697
-0.144636
-0.146642
-0.146271
-0.143049
-0.136777
-0.127552
-0.11594
-0.102829
-0.0894214
-0.0768227
-0.0658595
-0.0567833
-0.0493163
-0.0427173
-0.0360381
-0.0285108
-0.0195739
-0.00914107
0.00257787
0.0152063
0.0282821
0.0412883
0.0538758
0.0657347
0.0766791
0.08649
0.0949267
0.101894
0.107268
0.110939
0.112958
0.113537
0.113069
0.112095
0.111157
0.110723
0.111137
0.112411
0.114381
0.116686
0.118857
0.120436
0.121148
0.120931
0.119932
0.118426
0.116677
0.114901
0.113065
0.110934
0.108214
0.104707
0.100521
0.0958759
0.0912664
0.087197
0.0839881
0.0817827
0.0804617
0.0797244
0.0793385
0.079023
0.0785364
0.0778068
0.0767934
0.0753603
0.0735414
0.0713799
0.0689597
0.0664644
0.0641304
0.0622563
0.0611088
0.0607248
0.0609499
0.0614013
0.0615042
0.0607931
0.0589886
0.0560794
0.0523384
0.0481543
0.0438736
0.0396657
0.0356894
0.0318425
0.0280805
0.0243939
0.0208782
0.0175746
0.014706
0.0125445
0.0113196
0.0111488
0.0119737
0.0135189
0.0152896
0.0167532
0.0173686
0.01693
0.0154218
0.0130973
0.0103953
0.00770525
0.00536054
0.00358823
0.00236284
0.00156612
0.000946866
0.00017862
-0.00106895
-0.00296113
-0.00561799
-0.00891675
-0.0125977
-0.0161765
-0.0192055
-0.0212855
-0.0221778
-0.0218092
-0.0202126
-0.0174486
-0.0134461
-0.00810545
-0.00114994
0.00741672
0.0174633
0.028389
0.0393019
0.0492668
0.0575097
0.0637818
0.0684106
0.0721553
0.0758946
0.080211
0.0850263
0.0895965
0.0928699
0.0938043
0.091913
0.0875169
0.0816269
0.0755731
0.07039
0.0666695
0.064452
0.0634333
0.0633954
0.0644843
0.0669887
0.0710273
0.0759418
0.0803243
0.0821985
0.079589
0.0713678
0.0576106
0.0396759
0.0196378
-0.000248782
-0.018164
-0.0329211
-0.0439685
-0.0512975
-0.0551939
-0.0561435
-0.0549413
-0.0525056
-0.0498048
-0.0475406
-0.0460609
-0.0453887
-0.045218
-0.0450968
-0.0446852
-0.0439817
-0.0431036
-0.0424572
-0.0424413
-0.0433313
-0.0450187
-0.047057
-0.0489088
-0.0501173
-0.0506473
-0.0512162
-0.0534159
-0.059489
-0.0716579
-0.0916185
-0.11952
-0.153442
-0.188675
-0.217773
-0.231152
-0.217947
-0.167442
-0.070682
0.0769698
0.272927
0.50477
0.749164
0.972932
1.13857
1.21259
1.17529
1.02816
0.795498
0.519092
0.247033
0.0206827
-0.135555
-0.217986
-0.240474
-0.22639
-0.199147
-0.175481
-0.162867
-0.16115
-0.166196
-0.173287
-0.17916
-0.182394
-0.182999
-0.181535
-0.178671
-0.174824
-0.170542
-0.166245
-0.162424
-0.15941
-0.15739
-0.156439
-0.15646
-0.157163
-0.158194
-0.159143
-0.159662
-0.159573
-0.158889
-0.157835
-0.156714
-0.155792
-0.155103
-0.154472
-0.153592
-0.152107
-0.149879
-0.146968
-0.143695
-0.140537
-0.137822
-0.135822
-0.134442
-0.133481
-0.132627
-0.131766
-0.130846
-0.129907
-0.129085
-0.128474
-0.128066
-0.127816
-0.127647
-0.127542
-0.12755
-0.127817
-0.128404
-0.129341
-0.130459
-0.131485
-0.132018
-0.131841
-0.130865
-0.129323
-0.127558
-0.126027
-0.125146
-0.125094
-0.125777
-0.126925
-0.128092
-0.128881
-0.12897
-0.128299
-0.126961
-0.125185
-0.123231
-0.121311
-0.119658
-0.11844
-0.117825
-0.117874
-0.118538
-0.119501
-0.12012
-0.119347
-0.116204
-0.109883
-0.100092
-0.0872065
-0.0722648
-0.0567076
-0.042006
-0.029258
-0.0189864
-0.0110487
-0.00482357
0.000575275
0.00597474
0.0120101
0.0190385
0.0271013
0.0360159
0.0454928
0.0551561
0.0646139
0.0735582
0.0817499
0.0890175
0.0953134
0.100508
0.1045
0.107191
0.108499
0.108453
0.107236
0.105106
0.102495
0.0998929
0.0977661
0.0964534
0.0960936
0.0965664
0.0976294
0.0989334
0.100105
0.100902
0.101212
0.101126
0.100672
0.0999659
0.0990504
0.0978475
0.0962581
0.0941349
0.0913954
0.0881599
0.0845896
0.0809754
0.0776198
0.074723
0.0723867
0.0705736
0.0691206
0.0678017
0.0664392
0.0648597
0.0629783
0.0608308
0.0585578
0.0564132
0.0546456
0.0533376
0.0524978
0.0518365
0.0509868
0.0495809
0.0474135
0.0444352
0.0407786
0.036701
0.0324706
0.0282425
0.0241344
0.0201215
0.016195
0.0123448
0.00855605
0.00483239
0.00125173
-0.0020136
-0.00480374
-0.00691158
-0.00816638
-0.00853436
-0.00818597
-0.00749829
-0.00687817
-0.00667044
-0.00714022
-0.00839362
-0.0102895
-0.0126339
-0.0151405
-0.0174647
-0.019337
-0.0205376
-0.0210028
-0.0208163
-0.0202541
-0.0196106
-0.0191631
-0.0190711
-0.0193648
-0.0198874
-0.0205213
-0.0211824
-0.0217196
-0.0219343
-0.0215333
-0.0201728
-0.0174146
-0.0128299
-0.00621281
0.00234326
0.0124207
0.0233426
0.0342578
0.0443848
0.0531868
0.0604349
0.066275
0.0710566
0.0751622
0.0789043
0.082337
0.0852044
0.0872285
0.0880552
0.0874327
0.0853796
0.0820836
0.0779167
0.0734041
0.069165
0.0659353
0.0646161
0.0660644
0.0705944
0.0778639
0.0865832
0.0946544
0.0997366
0.0999149
0.0943523
0.083502
0.0688877
0.0526181
0.036578
0.0220149
0.00929289
-0.00177474
-0.0114875
-0.0201595
-0.0276584
-0.0336438
-0.0378074
-0.040024
-0.0404791
-0.0396597
-0.0382502
-0.0369167
-0.036193
-0.0363717
-0.0374288
-0.0391111
-0.0409967
-0.0426629
-0.0436633
-0.0438103
-0.0430968
-0.0418298
-0.0403802
-0.0395306
-0.0403365
-0.0442063
-0.0528104
-0.0676484
-0.0895041
-0.117772
-0.149944
-0.18096
-0.203544
-0.208914
-0.187607
-0.13066
-0.0308092
0.115513
0.305736
0.528645
0.762938
0.978034
1.13847
1.212
1.17866
1.0384
0.813263
0.542738
0.273159
0.0453487
-0.115537
-0.204198
-0.232445
-0.221931
-0.195301
-0.16936
-0.152499
-0.145776
-0.146326
-0.150311
-0.154896
-0.158677
-0.161365
-0.163065
-0.16385
-0.16368
-0.16266
-0.160993
-0.159084
-0.157241
-0.155682
-0.15435
-0.153171
-0.151958
-0.150652
-0.149354
-0.148184
-0.147304
-0.146791
-0.146506
-0.146183
-0.145548
-0.144215
-0.142124
-0.139404
-0.136311
-0.133204
-0.13042
-0.128063
-0.126082
-0.124326
-0.122565
-0.120651
-0.118768
-0.117032
-0.115697
-0.114897
-0.114558
-0.114423
-0.114272
-0.113857
-0.113049
-0.112056
-0.111117
-0.110608
-0.110882
-0.112052
-0.114033
-0.116548
-0.119219
-0.121623
-0.123484
-0.124656
-0.125042
-0.124724
-0.123721
-0.12201
-0.119735
-0.117074
-0.114279
-0.111735
-0.109754
-0.108465
-0.107904
-0.107975
-0.108589
-0.109837
-0.111873
-0.114802
-0.118583
-0.122874
-0.127016
-0.130165
-0.13147
-0.130334
-0.126366
-0.119409
-0.109547
-0.0970024
-0.0822605
-0.0659766
-0.0491014
-0.032642
-0.017497
-0.00427144
0.00683563
0.0161134
0.0241272
0.0315506
0.0388949
0.0464364
0.0541624
0.0618733
0.0692273
0.0759857
0.0819229
0.0869921
0.0912437
0.0947631
0.0975922
0.0998919
0.101741
0.103273
0.10459
0.10583
0.107108
0.108464
0.109913
0.111312
0.112558
0.113369
0.113489
0.112688
0.110894
0.108107
0.104587
0.100695
0.0968666
0.0935039
0.0908939
0.0891101
0.0879995
0.0872423
0.0865318
0.0855304
0.0841337
0.0822698
0.0800456
0.0775654
0.074973
0.0724507
0.0700955
0.0680803
0.066423
0.0651105
0.0639001
0.0625466
0.0608127
0.0585467
0.0557058
0.0524868
0.0491312
0.0459344
0.0430289
0.0404653
0.0380921
0.0356545
0.0329562
0.0298528
0.0263258
0.0225251
0.0186473
0.0148092
0.0110803
0.00736635
0.00367205
2.97518e-5
-0.00326967
-0.00597196
-0.00779743
-0.00862551
-0.00852711
-0.00776636
-0.00666907
-0.00551354
-0.0045088
-0.00375932
-0.00332718
-0.00331741
-0.00379126
-0.00483385
-0.00641648
-0.00835734
-0.0104169
-0.0122566
-0.0136559
-0.0144736
-0.0147206
-0.0145522
-0.0141815
-0.0138555
-0.0137362
-0.0138765
-0.0142667
-0.0147654
-0.015189
-0.0153232
-0.0149097
-0.0136183
-0.0111091
-0.00696053
-0.000871828
0.00713485
0.0166798
0.0269461
0.0368668
0.0454546
0.0520965
0.056693
0.0597055
0.0619072
0.0642217
0.0673292
0.071472
0.0765736
0.0821077
0.0873814
0.0916224
0.0942734
0.095024
0.0938488
0.0910338
0.0870369
0.0823252
0.0774125
0.0728279
0.0691218
0.0670248
0.0672576
0.0701904
0.0754905
0.0818838
0.0872384
0.0891451
0.085623
0.075719
0.0600385
0.0404005
0.019385
-0.000394759
-0.0170082
-0.0294746
-0.0376506
-0.0419002
-0.0430485
-0.0419516
-0.0395497
-0.0366759
-0.0341596
-0.0325452
-0.0321417
-0.032889
-0.0344092
-0.036169
-0.0375746
-0.0381734
-0.0378725
-0.03678
-0.0351968
-0.0334954
-0.0319483
-0.0306741
-0.0298049
-0.0296606
-0.0310622
-0.0354361
-0.0446255
-0.0603014
-0.0833735
-0.113469
-0.148125
-0.18246
-0.209279
-0.219689
-0.203781
-0.151769
-0.0556676
0.088244
0.276593
0.496295
0.723492
0.92548
1.06661
1.1167
1.06058
0.903991
0.673972
0.412302
0.164041
-0.0346036
-0.164698
-0.226728
-0.236203
-0.215621
-0.186128
-0.161729
-0.147933
-0.143864
-0.145564
-0.149061
-0.151757
-0.152793
-0.152404
-0.151179
-0.149662
-0.148167
-0.146895
-0.145903
-0.145305
-0.144958
-0.144867
-0.144885
-0.144927
-0.144825
-0.144455
-0.143646
-0.14228
-0.140271
-0.137633
-0.13459
-0.131373
-0.12833
-0.125701
-0.123555
-0.121805
-0.120112
-0.118115
-0.115552
-0.112432
-0.109109
-0.106126
-0.104024
-0.103042
-0.10304
-0.103403
-0.103461
-0.102653
-0.100885
-0.0984302
-0.0959729
-0.0941858
-0.0935319
-0.0941068
-0.0956365
-0.0977226
-0.0999681
-0.102182
-0.104336
-0.10651
-0.108766
-0.110948
-0.112818
-0.114057
-0.114333
-0.113454
-0.111418
-0.108416
-0.104765
-0.100859
-0.0971686
-0.0942196
-0.0924549
-0.0921533
-0.0933057
-0.0956058
-0.0985293
-0.101503
-0.104115
-0.106271
-0.108153
-0.110201
-0.112692
-0.115617
-0.118547
-0.120552
-0.120489
-0.11735
-0.110478
-0.099804
-0.0859226
-0.0698669
-0.0529048
-0.0362775
-0.0209977
-0.0076795
0.00339613
0.0123814
0.0195163
0.0251498
0.029623
0.0332536
0.0364263
0.0396375
0.0435051
0.0485707
0.0550897
0.0629719
0.0715127
0.0797349
0.0866269
0.0914733
0.0940995
0.0948565
0.0944543
0.0937202
0.0932576
0.0933315
0.0938768
0.0946245
0.0953202
0.0956833
0.0956844
0.0952365
0.0944208
0.0931635
0.0914782
0.0893555
0.0869466
0.0844819
0.0822722
0.0805488
0.0792589
0.0781433
0.0767807
0.0747345
0.0718378
0.0681808
0.0640954
0.060119
0.0566196
0.0537715
0.0514979
0.0495054
0.0474638
0.0452922
0.0429397
0.0405818
0.0383822
0.03647
0.0348994
0.0337238
0.0328842
0.0323584
0.032039
0.0317889
0.0313404
0.0304449
0.0289594
0.0267386
0.0238963
0.0205755
0.0168745
0.012815
0.00850885
0.0039702
-0.000525767
-0.00469251
-0.00817131
-0.0105971
-0.0117679
-0.0118953
-0.0113622
-0.0108673
-0.0111965
-0.0128899
-0.0161503
-0.0206451
-0.0254465
-0.0293505
-0.0312727
-0.0305917
-0.0274776
-0.0228411
-0.0180298
-0.0143015
-0.0124713
-0.0127163
-0.0144773
-0.0168738
-0.0191223
-0.020642
-0.0212938
-0.0212718
-0.0209282
-0.0206118
-0.0204827
-0.0203687
-0.0198118
-0.0180994
-0.0146009
-0.00891638
-0.00127977
0.00758793
0.0165556
0.0245843
0.0311311
0.0363793
0.0410934
0.0463044
0.052727
0.0605085
0.0690053
0.0771728
0.0838594
0.0881938
0.0897913
0.088756
0.0854572
0.0803631
0.0739859
0.066882
0.059761
0.0535458
0.0490035
0.0465025
0.0458105
0.0459589
0.0455887
0.0432884
0.0380152
0.0293945
0.0178232
0.00425231
-0.0100073
-0.0236259
-0.0354045
-0.0445185
-0.0504838
-0.0533341
-0.053628
-0.0522
-0.0500004
-0.0478601
-0.046281
-0.0454767
-0.0454309
-0.0459726
-0.0469057
-0.0481557
-0.049705
-0.0515174
-0.053487
-0.055333
-0.0567491
-0.0574597
-0.057366
-0.0566366
-0.0559977
-0.0566908
-0.0603987
-0.0689718
-0.0839915
-0.106258
-0.135068
-0.167286
-0.197109
-0.216199
-0.214389
-0.180926
-0.106404
0.0147686
0.181747
0.384721
0.603691
0.809579
0.968589
1.04963
1.03289
0.916438
0.718698
0.474551
0.226343
0.0125629
-0.141539
-0.228583
-0.257358
-0.246765
-0.217914
-0.187369
-0.16419
-0.150432
-0.143907
-0.141167
-0.139729
-0.138739
-0.138632
-0.139963
-0.142767
-0.146376
-0.14965
-0.151566
-0.151534
-0.149786
-0.147072
-0.144493
-0.142893
-0.142644
-0.143501
-0.144811
-0.14578
-0.145796
-0.144731
-0.142909
-0.140854
-0.139171
-0.13804
-0.137341
-0.136646
-0.135522
-0.133631
-0.130956
-0.127665
-0.124002
-0.120268
-0.116796
-0.113896
-0.111966
-0.111461
-0.112553
-0.115162
-0.118531
-0.121528
-0.122917
-0.121745
-0.1178
-0.111719
-0.104821
-0.0987284
-0.0947754
-0.0936477
-0.0951249
-0.0982935
-0.101856
-0.104494
-0.10543
-0.104573
-0.102449
-0.100033
-0.0984525
-0.0985508
-0.100704
-0.104706
-0.109922
-0.115386
-0.120162
-0.123565
-0.125502
-0.126264
-0.126637
-0.127457
-0.129356
-0.132582
-0.136921
-0.141789
-0.1465
-0.150467
-0.1531
-0.153899
-0.152222
-0.147323
-0.138405
-0.124849
-0.106576
-0.0841927
-0.0589946
-0.0328043
-0.00740735
0.0156298
0.0353544
0.0516548
0.0647787
0.0752318
0.08354
0.0900339
0.0949946
0.0987033
0.101464
0.103739
0.105889
0.108133
0.110444
0.112651
0.114354
0.115323
0.115371
0.114564
0.113216
0.111697
0.110436
0.109751
0.109709
0.110126
0.110602
0.110699
0.110273
0.109332
0.108263
0.107475
0.107315
0.107734
0.108426
0.108782
0.108288
0.106532
0.103513
0.0995302
0.0950379
0.0906092
0.0867647
0.0837933
0.0819195
0.0810732
0.0809295
0.0810283
0.0808546
0.0800086
0.0783304
0.0759533
0.0731549
0.0702109
0.0673946
0.0647422
0.0622002
0.05975
0.0574126
0.055263
0.0533757
0.0517489
0.0502789
0.0487659
0.0469626
0.0447755
0.0422806
0.0397323
0.0374819
0.0359443
0.0354147
0.0359837
0.0374994
0.0395592
0.0416904
0.0435089
0.044857
0.0457648
0.0464281
0.0470586
0.0476624
0.0480944
0.0481001
0.047392
0.0458196
0.043477
0.0406578
0.0377852
0.0350979
0.0327073
0.0305043
0.0282272
0.0256796
0.0227878
0.0198339
0.017353
0.016108
0.0168541
0.0201531
0.026193
0.0346309
0.0446983
0.0553679
0.0656614
0.0748694
0.0828128
0.0896781
0.0959106
0.101673
0.106816
0.110741
0.112716
0.112141
0.108892
0.103456
0.0966559
0.0895597
0.0831439
0.0781011
0.0749326
0.0739482
0.0752159
0.0782423
0.0819859
0.0848588
0.0850443
0.0810624
0.0722755
0.0591464
0.0431395
0.0262718
0.0104762
-0.00292858
-0.0134336
-0.0211037
-0.026419
-0.0298672
-0.0319565
-0.0331311
-0.033861
-0.0345419
-0.0355183
-0.0369478
-0.038875
-0.0410378
-0.0431522
-0.0449397
-0.0463446
-0.0473516
-0.048081
-0.0486062
-0.0488074
-0.0485374
-0.0476308
-0.0460784
-0.044382
-0.0437847
-0.0461762
-0.0537678
-0.0685467
-0.0914641
-0.121602
-0.15546
-0.186549
-0.205833
-0.202538
-0.165563
-0.0848831
0.0456321
0.225375
0.444052
0.680026
0.901087
1.06936
1.14997
1.12117
0.982515
0.757024
0.48631
0.219089
-0.00251399
-0.153575
-0.230458
-0.24766
-0.229243
-0.199028
-0.173672
-0.159991
-0.156935
-0.159722
-0.163427
-0.165052
-0.163854
-0.160712
-0.157062
-0.15401
-0.152149
-0.151525
-0.151974
-0.153033
-0.154237
-0.155179
-0.155612
-0.155497
-0.154977
-0.154306
-0.153695
-0.153218
-0.152913
-0.152686
-0.15243
-0.152065
-0.151401
-0.15035
-0.148789
-0.146675
-0.144078
-0.141162
-0.138058
-0.134986
-0.132047
-0.129257
-0.126568
-0.123996
-0.121544
-0.119359
-0.117622
-0.116454
-0.116018
-0.116224
-0.116963
-0.118105
-0.119407
-0.120794
-0.122111
-0.123413
-0.124608
-0.125618
-0.12635
-0.126614
-0.12634
-0.125609
-0.124482
-0.123049
-0.121407
-0.119561
-0.117464
-0.115157
-0.112838
-0.11091
-0.109864
-0.110108
-0.111885
-0.115078
-0.119084
-0.123244
-0.126849
-0.129325
-0.130597
-0.130832
-0.130524
-0.130063
-0.129753
-0.129487
-0.128796
-0.126879
-0.122729
-0.11531
-0.10389
-0.0881757
-0.0684953
-0.0458051
-0.0216178
0.00234161
0.0244097
0.0434258
0.0588195
0.0706782
0.0796466
0.0866078
0.0923705
0.0975695
0.1025
0.107155
0.111435
0.115165
0.118228
0.120494
0.121885
0.122226
0.121492
0.119796
0.117381
0.114776
0.112495
0.111016
0.110532
0.110987
0.11204
0.113232
0.114216
0.114663
0.114513
0.113787
0.112552
0.110911
0.108968
0.106788
0.104502
0.102212
0.0999143
0.0976137
0.095174
0.0923736
0.0890761
0.0853098
0.0812794
0.077304
0.0737573
0.0708924
0.068797
0.0672856
0.0660817
0.0647982
0.063173
0.0610808
0.0585131
0.0555515
0.052213
0.0484173
0.044077
0.0390775
0.0334525
0.0274804
0.0216246
0.0163443
0.0120537
0.0089278
0.00687307
0.00572877
0.00527241
0.00526326
0.00550755
0.00576744
0.00590402
0.00575248
0.00527234
0.00447708
0.00348968
0.00242581
0.00136526
0.00028114
-0.000916807
-0.00213971
-0.00329077
-0.00411475
-0.00444332
-0.0042339
-0.00361574
-0.00283104
-0.00223857
-0.0020177
-0.00227067
-0.00292788
-0.00389439
-0.00502908
-0.00627809
-0.00761039
-0.00897819
-0.0101026
-0.0106175
-0.00996437
-0.00756497
-0.00291961
0.00419299
0.0135414
0.0244323
0.0358319
0.0466115
0.0557464
0.0627796
0.0678098
0.0714173
0.0745095
0.0777969
0.0816609
0.0859757
0.0900657
0.0930993
0.0942058
0.0929186
0.0892523
0.0838192
0.0777369
0.0723676
0.0689598
0.0683646
0.0704946
0.0743257
0.07805
0.0794697
0.0768016
0.0690765
0.0564683
0.0402691
0.0224802
0.0052031
-0.00991669
-0.021886
-0.0305242
-0.0360819
-0.0391681
-0.0405531
-0.0409212
-0.0409778
-0.0412196
-0.0419557
-0.0432285
-0.0448988
-0.0467086
-0.0484393
-0.0499037
-0.0511034
-0.052071
-0.0528095
-0.0533096
-0.0536283
-0.0541436
-0.0554139
-0.0583339
-0.0639754
-0.0733047
-0.087135
-0.105889
-0.129544
-0.157356
-0.187562
-0.217146
-0.241502
-0.254824
-0.250344
-0.221195
-0.160641
-0.0626802
0.0765642
0.256507
0.469319
0.697371
0.912904
1.0813
1.16873
1.15193
1.02705
0.813203
0.548502
0.280026
0.0505828
-0.112514
-0.202316
-0.230321
-0.218796
-0.19137
-0.165764
-0.150499
-0.14611
-0.148743
-0.153845
-0.158115
-0.160209
-0.160258
-0.159015
-0.157083
-0.154914
-0.152851
-0.151371
-0.150777
-0.151209
-0.152455
-0.154013
-0.155204
-0.155496
-0.154617
-0.152656
-0.149829
-0.146494
-0.142897
-0.139205
-0.135576
-0.13211
-0.128985
-0.12637
-0.124329
-0.122762
-0.121497
-0.120245
-0.118791
-0.116977
-0.114883
-0.112741
-0.110922
-0.109758
-0.109536
-0.110307
-0.111805
-0.113539
-0.114912
-0.115356
-0.114724
-0.113175
-0.111283
-0.109738
-0.109118
-0.109672
-0.111148
-0.113007
-0.114541
-0.115142
-0.114518
-0.112689
-0.109952
-0.106762
-0.103533
-0.100664
-0.0984386
-0.0969129
-0.0960726
-0.0958621
-0.0961331
-0.09678
-0.097723
-0.0989008
-0.100309
-0.102029
-0.104061
-0.10645
-0.109057
-0.111667
-0.113941
-0.115503
-0.115983
-0.115082
-0.11255
-0.10807
-0.10122
-0.0916199
-0.0788778
-0.0629357
-0.0442918
-0.023888
-0.00309367
0.0166291
0.0341111
0.0487415
0.0605053
0.0699482
0.0778428
0.0849169
0.0915219
0.0976903
0.10312
0.107398
0.11025
0.111619
0.111727
0.110938
0.109661
0.108204
0.106868
0.105757
0.104943
0.104507
0.104405
0.104574
0.104962
0.105351
0.105517
0.105264
0.104423
0.103048
0.101201
0.0991213
0.0969321
0.0947501
0.0925421
0.0902322
0.0877249
0.0850327
0.0822272
0.0794802
0.076991
0.0749144
0.0732517
0.0718839
0.0705656
0.0689217
0.0666302
0.0634808
0.0594536
0.0547787
0.0498389
0.0451166
0.0410391
0.0378736
0.0357446
0.0345125
0.0339645
0.033648
0.033204
0.0322052
0.0304871
0.0279942
0.0247942
0.0210721
0.0169725
0.0126889
0.00835569
0.00410522
0.000222849
-0.0030393
-0.00548472
-0.00695716
-0.00755169
-0.00750789
-0.00708299
-0.00645801
-0.0058068
-0.00516891
-0.0045936
-0.00412125
-0.00386912
-0.00400851
-0.00458658
-0.005509
-0.00656056
-0.00742447
-0.00787675
-0.00788184
-0.00750184
-0.00693508
-0.00636878
-0.00599623
-0.00592924
-0.00609223
-0.0064067
-0.00656567
-0.00607095
-0.00440075
-0.000917903
0.00482498
0.0127859
0.0224133
0.0327173
0.0424679
0.050708
0.0569614
0.061412
0.0648642
0.0683854
0.0728928
0.0788305
0.085932
0.0932776
0.0997126
0.104018
0.105457
0.103861
0.0996919
0.0937994
0.0871603
0.080771
0.0754001
0.0717067
0.0703412
0.0717921
0.076227
0.0833143
0.0918175
0.0998802
0.105283
0.10609
0.101326
0.0912129
0.0770159
0.0605534
0.0435482
0.0272662
0.0123381
-0.00102351
-0.0127409
-0.0225861
-0.0302884
-0.0357441
-0.0391581
-0.0411176
-0.0424763
-0.0441455
-0.0465754
-0.0498366
-0.0534515
-0.0566585
-0.0587238
-0.0590933
-0.0575514
-0.0543055
-0.0498903
-0.0450599
-0.0407189
-0.0380129
-0.0383349
-0.0433596
-0.0546118
-0.0733047
-0.0996111
-0.132132
-0.167347
-0.199315
-0.22008
-0.220485
-0.191386
-0.125065
-0.0163232
0.135617
0.325798
0.542423
0.766338
0.972217
1.13158
1.2179
1.21266
1.11088
0.923913
0.678258
0.409908
0.156382
-0.0516871
-0.196583
-0.275679
-0.299192
-0.285058
-0.252745
-0.218156
-0.191063
-0.175121
-0.169332
-0.170406
-0.174767
-0.17988
-0.184311
-0.187528
-0.189498
-0.190286
-0.189996
-0.188696
-0.186482
-0.183536
-0.180101
-0.176423
-0.172784
-0.16936
-0.16623
-0.16346
-0.161084
-0.15912
-0.157611
-0.156673
-0.156144
-0.155868
-0.155523
-0.154742
-0.153166
-0.150705
-0.147404
-0.143675
-0.139976
-0.136898
-0.134837
-0.133948
-0.134126
-0.134914
-0.135864
-0.136467
-0.136522
-0.136054
-0.135193
-0.134201
-0.133278
-0.132541
-0.132008
-0.13172
-0.13164
-0.131645
-0.131696
-0.131599
-0.131261
-0.130481
-0.129203
-0.127428
-0.125261
-0.122823
-0.120333
-0.11802
-0.116132
-0.114936
-0.114516
-0.114887
-0.11584
-0.11714
-0.11848
-0.119637
-0.120614
-0.121574
-0.122825
-0.124579
-0.127012
-0.129923
-0.132771
-0.134811
-0.135056
-0.132608
-0.126786
-0.117422
-0.104888
-0.0899914
-0.0738719
-0.0576685
-0.042431
-0.028782
-0.0171146
-0.00738346
0.000643067
0.00746582
0.0137036
0.0201157
0.027344
0.0357201
0.0451809
0.0552544
0.0652385
0.0742964
0.0819094
0.0879213
0.0924506
0.0958713
0.0984689
0.100353
0.101448
0.101643
0.100933
0.0994552
0.0976038
0.0957314
0.0941808
0.0929555
0.0918828
0.0906551
0.0889894
0.0868137
0.0842825
0.08172
0.0795434
0.0781895
0.0778133
0.0784151
0.0796171
0.0808631
0.0815115
0.0810488
0.0793285
0.0766302
0.0735248
0.0707088
0.0685992
0.0671399
0.0658476
0.064004
0.0609047
0.0563185
0.0504878
0.044028
0.0376969
0.0318809
0.0267012
0.021899
0.0172514
0.0126982
0.00859855
0.00549914
0.0039983
0.00435517
0.00634704
0.00927242
0.0122817
0.0145578
0.0156374
0.0154646
0.0142604
0.0123586
0.00993989
0.00707864
0.00358801
-0.000696141
-0.00574537
-0.0113031
-0.0168346
-0.0217196
-0.0254948
-0.0279037
-0.0291098
-0.0294536
-0.0292959
-0.0288969
-0.0283342
-0.0275824
-0.0265877
-0.0253457
-0.0239454
-0.0224598
-0.021051
-0.0198849
-0.0190732
-0.0189024
-0.0195774
-0.021402
-0.0243487
-0.028179
-0.032253
-0.0357033
-0.0377187
-0.037725
-0.0357286
-0.0321851
-0.0278757
-0.0234884
-0.0193191
-0.0151204
-0.0103427
-0.00433793
0.00308731
0.0116456
0.0205981
0.0290183
0.0362777
0.0422103
0.0471774
0.0519271
0.0570026
0.0627121
0.0688974
0.0750741
0.0804595
0.0843539
0.0862788
0.0858986
0.0831929
0.0783342
0.0717198
0.0640403
0.0562802
0.0495616
0.0450547
0.0434056
0.0445155
0.0473091
0.0500327
0.0505959
0.0472807
0.0392539
0.026853
0.0115617
-0.00454739
-0.0194191
-0.0315833
-0.0403295
-0.0458261
-0.0487803
-0.0499962
-0.0502623
-0.0502251
-0.0503116
-0.0508443
-0.0520528
-0.0541249
-0.0572234
-0.0612669
-0.0660279
-0.0710893
-0.0759077
-0.0798446
-0.0823164
-0.0828522
-0.0812835
-0.0778188
-0.0730717
-0.0678985
-0.0632834
-0.0600909
-0.059083
-0.060993
-0.0666822
-0.0771202
-0.0932427
-0.115671
-0.143845
-0.175399
-0.205354
-0.226505
-0.229916
-0.205787
-0.14483
-0.0404625
0.108838
0.297017
0.508544
0.718357
0.894933
1.00637
1.02852
0.95238
0.78819
0.564037
0.318855
0.0921246
-0.0861253
-0.201503
-0.256072
-0.26402
-0.244827
-0.2163
-0.190359
-0.17201
-0.161316
-0.155788
-0.152781
-0.150737
-0.14922
-0.148479
-0.148531
-0.14924
-0.150148
-0.150813
-0.150909
-0.150332
-0.149186
-0.147622
-0.145895
-0.144294
-0.143161
-0.142791
-0.143368
-0.144858
-0.146861
-0.148827
-0.150081
-0.150114
-0.148741
-0.146092
-0.142565
-0.138639
-0.134668
-0.130893
-0.127635
-0.125108
-0.123639
-0.123429
-0.124409
-0.126042
-0.127527
-0.128014
-0.126897
-0.124353
-0.121095
-0.118274
-0.116885
-0.117466
-0.119825
-0.123045
-0.12592
-0.127345
-0.126737
-0.124143
-0.120187
-0.115897
-0.112214
-0.109817
-0.109092
-0.109864
-0.111666
-0.113809
-0.115624
-0.116493
-0.116083
-0.114452
-0.112015
-0.109409
-0.107369
-0.10647
-0.107006
-0.108799
-0.111397
-0.114111
-0.116325
-0.117698
-0.118324
-0.11871
-0.11945
-0.121016
-0.123395
-0.125955
-0.127687
-0.127496
-0.124498
-0.118487
-0.109869
-0.0995525
-0.0885612
-0.0779261
-0.0683996
-0.0603777
-0.0539813
-0.0490538
-0.0452253
-0.0419462
-0.0385042
-0.0342811
-0.0288148
-0.0220117
-0.014138
-0.00572153
0.00269868
0.0108009
0.0186045
0.0264782
0.0348313
0.0439709
0.0537713
0.0636872
0.0730215
0.0809293
0.0869649
0.0908948
0.0928597
0.0933531
0.0930256
0.0925657
0.0927244
0.0940612
0.0968531
0.100921
0.105617
0.109961
0.112906
0.113626
0.111849
0.107788
0.102108
0.0957458
0.0895252
0.0840775
0.0797934
0.0767411
0.0748925
0.0742578
0.0747031
0.0761636
0.0783044
0.0807953
0.0831245
0.0847514
0.0852326
0.0842778
0.0818188
0.0780276
0.0733158
0.0682891
0.0635117
0.0594122
0.0561246
0.0534706
0.0509891
0.0481772
0.0446018
0.0400613
0.0346659
0.0288812
0.0233273
0.0187583
0.0158015
0.0146412
0.0150653
0.0165241
0.0183291
0.0197909
0.0205657
0.0205936
0.019937
0.0186183
0.0164272
0.0131213
0.0084747
0.00270707
-0.00343765
-0.00892836
-0.0128634
-0.0147424
-0.0146923
-0.0133775
-0.0116831
-0.0103945
-0.00982112
-0.00996145
-0.0104005
-0.0107722
-0.0108937
-0.0108082
-0.0107212
-0.0108513
-0.0113814
-0.0123234
-0.0136211
-0.0151466
-0.0167683
-0.018355
-0.0197496
-0.0209313
-0.0218315
-0.0223868
-0.0225231
-0.0222069
-0.021229
-0.0194048
-0.0165233
-0.0124568
-0.0070986
-0.00045491
0.00722006
0.0155876
0.0241057
0.0322306
0.0394377
0.0454434
0.0502429
0.0540799
0.0575262
0.0611264
0.0653616
0.0703659
0.0759648
0.0815252
0.0862118
0.0891611
0.0897537
0.0878517
0.0836799
0.0780685
0.0718776
0.0658664
0.0604566
0.0558196
0.0520255
0.0492218
0.0478203
0.0482459
0.0506311
0.0543721
0.0581374
0.0601384
0.0585228
0.0521869
0.0410784
0.026356
0.00999419
-0.0058828
-0.0195069
-0.0297136
-0.0362097
-0.0392902
-0.0396522
-0.0384595
-0.0368102
-0.0358525
-0.0363762
-0.0386429
-0.042376
-0.0468288
-0.0510616
-0.0542167
-0.055835
-0.0559994
-0.0550622
-0.0534603
-0.0514262
-0.0490899
-0.0463649
-0.0432513
-0.0402042
-0.0382254
-0.0390253
-0.0445791
-0.0567158
-0.0764893
-0.103526
-0.135458
-0.167704
-0.193613
-0.205214
-0.194371
-0.154225
-0.0803359
0.0283983
0.169309
0.336136
0.520054
0.710848
0.897987
1.07076
1.21803
1.32751
1.3859
1.38034
1.30164
1.14841
0.930461
0.669574
0.396401
0.14391
-0.0604404
-0.201155
-0.277248
-0.300379
-0.289341
-0.263642
-0.238298
-0.221218
-0.213959
-0.214051
-0.217677
-0.221632
-0.224081
-0.224582
-0.223316
-0.220695
-0.217093
-0.212959
-0.208758
-0.205034
-0.202239
-0.200599
-0.20008
-0.20035
-0.200954
-0.20144
-0.201551
-0.20114
-0.200267
-0.199032
-0.197535
-0.195847
-0.193956
-0.191945
-0.189893
-0.187836
-0.185847
-0.18379
-0.181592
-0.179064
-0.176204
-0.173113
-0.170177
-0.167834
-0.166494
-0.166296
-0.167028
-0.168225
-0.169139
-0.169303
-0.168534
-0.16707
-0.165522
-0.164609
-0.164939
-0.166734
-0.169753
-0.173383
-0.176814
-0.179328
-0.1805
-0.180316
-0.179068
-0.177287
-0.175406
-0.17375
-0.172406
-0.171318
-0.170431
-0.169766
-0.169428
-0.169617
-0.170587
-0.172363
-0.174972
-0.178127
-0.181557
-0.184994
-0.188131
-0.190806
-0.192807
-0.193935
-0.193736
-0.191676
-0.187248
-0.180029
-0.169877
-0.156996
-0.141954
-0.125552
-0.108696
-0.0922401
-0.0768872
-0.0631396
-0.0510288
-0.040344
-0.0306527
-0.0213903
-0.0120173
-0.00222688
0.0081501
0.0189608
0.0298835
0.0405745
0.0504549
0.0590634
0.06596
0.0710495
0.0744374
0.0765777
0.0781569
0.0799886
0.0826516
0.0864635
0.091357
0.0969622
0.102699
0.107946
0.112202
0.115152
0.116659
0.116914
0.116261
0.115154
0.114044
0.113247
0.112714
0.112216
0.111532
0.110408
0.108979
0.107444
0.106117
0.10506
0.104017
0.102569
0.100229
0.0967299
0.0922569
0.0872571
0.0823572
0.0780831
0.074733
0.0723417
0.0707883
0.0700269
0.0698737
0.0702206
0.0708672
0.0714966
0.0717167
0.0711444
0.0695646
0.0670244
0.0637176
0.0599697
0.0559708
0.051957
0.048031
0.0444049
0.0412952
0.0388321
0.0370512
0.0357749
0.0345006
0.0327609
0.030264
0.0270269
0.0235107
0.0203213
0.0180174
0.0167483
0.0163614
0.0163164
0.0159604
0.0148743
0.0129587
0.0104319
0.00778678
0.00548492
0.00380563
0.00277358
0.00220751
0.00179638
0.00122971
0.000349721
-0.000847968
-0.00228824
-0.0037422
-0.00517934
-0.00647979
-0.00765148
-0.00875152
-0.0097599
-0.0107919
-0.0118225
-0.0127986
-0.0136893
-0.0144262
-0.0150022
-0.0153528
-0.0155038
-0.0154501
-0.0152133
-0.0147888
-0.0142016
-0.0134419
-0.0124844
-0.0113085
-0.00989474
-0.0082033
-0.00619461
-0.00377207
-0.000749103
0.00311129
0.00808899
0.0144045
0.0220738
0.0308806
0.0403166
0.0497933
0.058625
0.0662307
0.0723368
0.0769491
0.0802765
0.0827457
0.0848935
0.0871132
0.0897177
0.0926721
0.095738
0.0984455
0.100235
0.100639
0.0993784
0.0966137
0.0927366
0.0885452
0.0849756
0.0828792
0.0830136
0.0855361
0.0898907
0.0948092
0.0984414
0.098784
0.0943599
0.0845495
0.0698564
0.0516573
0.0319523
0.0127689
-0.004289
-0.0182194
-0.0286579
-0.0356302
-0.0395942
-0.0412351
-0.041403
-0.0410063
-0.0408428
-0.0413731
-0.0426913
-0.0446521
-0.0469029
-0.048944
-0.050382
-0.0507308
-0.0497883
-0.0475958
-0.0445947
-0.0416359
-0.0401429
-0.041833
-0.0486718
-0.0622932
-0.0835224
-0.111901
-0.145133
-0.178794
-0.206437
-0.220424
-0.213037
-0.178012
-0.111741
-0.0136723
0.113998
0.267054
0.440145
0.626745
0.818483
1.00355
1.16533
1.28254
1.33252
1.29692
1.1689
0.957993
0.690658
0.405128
0.142079
-0.0658493
-0.20197
-0.267758
-0.27927
-0.25952
-0.230279
-0.206338
-0.193944
-0.192427
-0.197649
-0.205167
-0.211793
-0.216139
-0.218123
-0.218223
-0.217114
-0.215356
-0.213536
-0.212062
-0.211068
-0.210324
-0.209347
-0.207725
-0.205201
-0.201923
-0.198317
-0.194925
-0.192137
-0.19016
-0.18888
-0.188022
-0.187305
-0.186524
-0.18554
-0.184393
-0.183147
-0.181871
-0.180676
-0.179618
-0.178688
-0.177833
-0.176823
-0.175422
-0.173272
-0.170214
-0.166262
-0.161758
-0.157296
-0.153527
-0.151053
-0.150041
-0.150324
-0.151362
-0.152563
-0.153371
-0.153647
-0.153469
-0.153202
-0.153252
-0.153868
-0.154998
-0.156456
-0.157772
-0.158617
-0.158756
-0.158128
-0.156859
-0.155079
-0.152948
-0.150614
-0.148171
-0.145789
-0.143668
-0.142137
-0.141513
-0.141934
-0.143424
-0.145633
-0.148057
-0.150081
-0.151055
-0.150513
-0.148252
-0.144191
-0.13839
-0.130862
-0.121548
-0.110244
-0.0969437
-0.0816291
-0.0647139
-0.047031
-0.0295747
-0.013416
0.000543288
0.0119032
0.0208131
0.0279235
0.0342033
0.0406513
0.0479987
0.0564534
0.0658321
0.0755216
0.084843
0.0933015
0.100416
0.106052
0.110232
0.112991
0.114432
0.114689
0.113928
0.112397
0.110367
0.108098
0.105875
0.103909
0.102312
0.101059
0.100147
0.0995007
0.0990987
0.0988961
0.0988581
0.098876
0.0988021
0.0985147
0.0978904
0.0969752
0.0958659
0.0947479
0.0938578
0.0932969
0.0930445
0.0929363
0.0927408
0.0921642
0.0910325
0.0891133
0.0865237
0.0833575
0.0797999
0.0760091
0.0720923
0.0680103
0.0637002
0.0591248
0.0543069
0.0494626
0.0447925
0.0405953
0.0370203
0.0340515
0.0314777
0.0291168
0.0268242
0.0246083
0.0225987
0.0209819
0.0197901
0.0189494
0.0181483
0.0170753
0.0154634
0.0133306
0.0108121
0.00820318
0.00568812
0.00333726
0.00100919
-0.00142146
-0.00416751
-0.00727773
-0.01067
-0.0141295
-0.0173594
-0.0201265
-0.0223225
-0.0238669
-0.0247996
-0.0251633
-0.0249207
-0.0240829
-0.0227275
-0.0209898
-0.0192039
-0.0177178
-0.0168352
-0.0166833
-0.0172506
-0.0182078
-0.0192566
-0.0201125
-0.0205698
-0.0205125
-0.0200296
-0.0192766
-0.0184281
-0.0175925
-0.0167699
-0.0158057
-0.0143121
-0.0117909
-0.00773507
-0.00190136
0.00575897
0.0148754
0.0247609
0.0347043
0.0441084
0.0526687
0.0604338
0.0675973
0.0743995
0.080904
0.086977
0.0921065
0.0958759
0.097914
0.098107
0.0965395
0.0935714
0.0895607
0.085081
0.0806103
0.07685
0.0745544
0.0742887
0.0762454
0.0798902
0.0839936
0.0868449
0.0868033
0.0827766
0.0746036
0.0631427
0.0497822
0.0360857
0.0232674
0.0118617
0.00197839
-0.00652559
-0.0136553
-0.0193674
-0.0235326
-0.0262583
-0.0278829
-0.0289599
-0.0300574
-0.031673
-0.0338646
-0.0364243
-0.0388499
-0.0406394
-0.0414946
-0.0414111
-0.0405665
-0.0392989
-0.0380552
-0.0372453
-0.0372064
-0.03839
-0.0414952
-0.0476152
-0.0581118
-0.0742034
-0.0967013
-0.125222
-0.157421
-0.188549
-0.211256
-0.215976
-0.191724
-0.127575
-0.0150398
0.148363
0.355759
0.588412
0.815922
1.00053
1.10553
1.10554
0.99526
0.792893
0.536443
0.273304
0.0468721
-0.114609
-0.203487
-0.230623
-0.218042
-0.189565
-0.163165
-0.147613
-0.143572
-0.146895
-0.152657
-0.157227
-0.159111
-0.158519
-0.15654
-0.154156
-0.152056
-0.15057
-0.149839
-0.149675
-0.149883
-0.150058
-0.149885
-0.149142
-0.147834
-0.146123
-0.144284
-0.142604
-0.141196
-0.140183
-0.139506
-0.139054
-0.13869
-0.138215
-0.137352
-0.135924
-0.133702
-0.130683
-0.127144
-0.12351
-0.120275
-0.117815
-0.116208
-0.115262
-0.114561
-0.113707
-0.112394
-0.110546
-0.108213
-0.105463
-0.102363
-0.098965
-0.0952744
-0.0915597
-0.0882184
-0.0856672
-0.0843173
-0.0842944
-0.085512
-0.0877027
-0.0905399
-0.0936536
-0.0967053
-0.0993574
-0.101325
-0.102405
-0.102495
-0.101704
-0.100265
-0.098508
-0.0967282
-0.0951651
-0.0941023
-0.0936573
-0.0939908
-0.0950754
-0.096719
-0.0985342
-0.100125
-0.101149
-0.101535
-0.101375
-0.100851
-0.100036
-0.0987678
-0.0966295
-0.0930077
-0.0873607
-0.0792865
-0.0687371
-0.0559556
-0.0415009
-0.0260329
-0.0103132
0.00499744
0.0194092
0.0326852
0.0447736
0.0558481
0.065993
0.0753389
0.0837071
0.0908959
0.0965726
0.100536
0.102771
0.10357
0.103308
0.10253
0.101544
0.10062
0.0997152
0.0985852
0.0969888
0.094755
0.0918913
0.0886765
0.0856267
0.083234
0.0819222
0.0818114
0.0827576
0.0843436
0.0861281
0.0877573
0.0890614
0.0898756
0.0902283
0.0899699
0.0889308
0.08693
0.083891
0.0799029
0.0753069
0.0705057
0.066012
0.0620571
0.0587
0.0557557
0.0529125
0.0497374
0.0460232
0.0417969
0.037328
0.0331172
0.0296886
0.0274849
0.0267186
0.0272639
0.0286926
0.0303305
0.0314185
0.0313914
0.0299494
0.0271223
0.023335
0.0191119
0.0150393
0.0115135
0.00880001
0.00691327
0.00565294
0.00485102
0.00423991
0.00362618
0.00287944
0.00204721
0.0011183
0.000192327
-0.000681151
-0.00167962
-0.00287904
-0.00444524
-0.00645106
-0.00872127
-0.0109557
-0.0127858
-0.013875
-0.0141481
-0.0137665
-0.0130467
-0.0123061
-0.0117347
-0.0113237
-0.0108562
-0.0101615
-0.00916662
-0.00790945
-0.00681915
-0.00632085
-0.0068059
-0.00842401
-0.0109073
-0.0133974
-0.0148007
-0.0138468
-0.00952051
-0.00158514
0.00931945
0.0217265
0.0337631
0.0437463
0.0507054
0.0546193
0.0564865
0.0577988
0.0600365
0.0641128
0.070159
0.0775498
0.0852333
0.0920727
0.0971854
0.100045
0.100477
0.0984186
0.0938775
0.0870077
0.0782508
0.0685497
0.0594116
0.0525481
0.0494035
0.0503642
0.0545617
0.0598851
0.0635652
0.0630208
0.056825
0.0450121
0.0291227
0.0116254
-0.00486712
-0.0183926
-0.0279204
-0.0334915
-0.0360307
-0.036683
-0.0366943
-0.0369837
-0.0381354
-0.0403322
-0.0434467
-0.0471461
-0.0509731
-0.0545397
-0.0575537
-0.0598714
-0.0615783
-0.0627013
-0.063303
-0.0632975
-0.0624217
-0.0604823
-0.0574827
-0.0536528
-0.0498183
-0.0474105
-0.0483309
-0.0545467
-0.0676603
-0.0884911
-0.116435
-0.149064
-0.181505
-0.206753
-0.215715
-0.197971
-0.143025
-0.0428341
0.105071
0.294128
0.506517
0.713555
0.880056
0.972284
0.967613
0.862207
0.67393
0.43834
0.199115
-0.00434729
-0.146901
-0.222284
-0.241136
-0.223942
-0.192673
-0.163761
-0.145212
-0.137523
-0.137012
-0.139173
-0.140754
-0.140543
-0.138917
-0.136802
-0.135042
-0.134045
-0.133837
-0.134272
-0.135182
-0.136395
-0.137894
-0.139442
-0.14097
-0.142147
-0.142734
-0.142381
-0.14096
-0.138451
-0.135066
-0.131147
-0.127099
-0.123289
-0.119866
-0.116857
-0.114269
-0.111989
-0.110034
-0.108489
-0.10741
-0.106814
-0.106576
-0.106448
-0.106052
-0.105072
-0.10326
-0.100716
-0.0976739
-0.0947344
-0.0924228
-0.0911668
-0.0910503
-0.0918415
-0.0929751
-0.0939329
-0.0942473
-0.0938531
-0.0928515
-0.0915641
-0.0902864
-0.0892137
-0.0882251
-0.0871782
-0.0858288
-0.0839457
-0.0815686
-0.0789785
-0.0767428
-0.0754034
-0.0754221
-0.0768079
-0.0791547
-0.0816589
-0.0835104
-0.0841178
-0.0834629
-0.0821749
-0.0812984
-0.0819917
-0.0849905
-0.0904393
-0.0977344
-0.105654
-0.112875
-0.118064
-0.1204
-0.119584
-0.115812
-0.109365
-0.100579
-0.0897074
-0.076867
-0.0624553
-0.0471634
-0.03197
-0.0179939
-0.00608596
0.00346328
0.011072
0.0177421
0.0246659
0.0327646
0.0423898
0.0532193
0.0644492
0.0750069
0.0840453
0.0910383
0.0959047
0.0988681
0.100336
0.100878
0.101015
0.101176
0.101596
0.102362
0.103337
0.104071
0.104154
0.103243
0.101117
0.0980023
0.0943408
0.0906489
0.0874144
0.0848384
0.0828005
0.0809816
0.0790914
0.0769569
0.0747279
0.0727801
0.0714713
0.0710394
0.0712675
0.071808
0.0720697
0.0715029
0.069816
0.067015
0.063467
0.0596045
0.0559666
0.0528949
0.0503568
0.0481024
0.0456756
0.0425887
0.0385929
0.0337986
0.0285724
0.0234508
0.0190207
0.0156609
0.0135502
0.0126407
0.0126484
0.0131327
0.0136206
0.0135592
0.0127178
0.0110701
0.00902036
0.00714358
0.0060392
0.0059387
0.00655333
0.00723058
0.00708152
0.00549084
0.00241979
-0.00166843
-0.00579623
-0.00904877
-0.0108077
-0.0110432
-0.0101763
-0.00893388
-0.007926
-0.00743258
-0.00738148
-0.0074398
-0.00723422
-0.00650049
-0.00527717
-0.00376067
-0.00247116
-0.00200546
-0.00288084
-0.00531746
-0.00909992
-0.0134931
-0.0174108
-0.0195191
-0.0186717
-0.0142469
-0.00638857
0.00397865
0.0153466
0.0261795
0.0351338
0.0416318
0.0457429
0.0482691
0.0502602
0.0527176
0.0562212
0.0607687
0.0658697
0.0706692
0.0743443
0.076327
0.0764715
0.0750493
0.0727304
0.0702332
0.0681576
0.0668855
0.066681
0.0675703
0.0694549
0.0720008
0.074423
0.0756203
0.0742458
0.0691234
0.0597201
0.0463267
0.0301525
0.0130208
-0.0031027
-0.0166836
-0.026876
-0.0336483
-0.0376024
-0.0396089
-0.0404435
-0.0407684
-0.0408835
-0.0408296
-0.0405642
-0.0400789
-0.039455
-0.0388892
-0.0385935
-0.0387231
-0.0393254
-0.0404502
-0.0420471
-0.0439719
-0.04609
-0.0480488
-0.0495665
-0.0504371
-0.0505977
-0.050228
-0.0498888
-0.0505454
-0.0535252
-0.0603651
-0.0725222
-0.0907618
-0.114656
-0.141853
-0.16763
-0.18506
-0.185738
-0.160378
-0.100197
0.00140764
0.146332
0.32926
0.535378
0.740106
0.91194
1.01853
1.03548
0.953978
0.785136
0.558342
0.313674
0.0911237
-0.0797279
-0.185897
-0.231296
-0.231907
-0.20821
-0.178336
-0.153884
-0.139205
-0.133501
-0.133528
-0.135816
-0.138023
-0.139204
-0.139389
-0.138948
-0.13827
-0.137477
-0.136466
-0.135102
-0.133097
-0.130339
-0.12706
-0.123601
-0.120431
-0.117912
-0.116142
-0.114996
-0.114054
-0.112928
-0.111399
-0.109523
-0.107634
-0.106117
-0.105253
-0.105158
-0.10577
-0.106873
-0.108212
-0.109583
-0.110876
-0.111981
-0.112787
-0.113225
-0.113282
-0.112962
-0.112319
-0.111412
-0.110164
-0.108479
-0.106325
-0.103732
-0.100998
-0.0984281
-0.0963006
-0.0948119
-0.0939151
-0.0934981
-0.0933175
-0.093091
-0.0927705
-0.0922855
-0.0916554
-0.090964
-0.090314
-0.089868
-0.0897888
-0.090265
-0.0913313
-0.0929154
-0.0948059
-0.0966636
-0.0983018
-0.0997132
-0.101071
-0.102698
-0.104902
-0.107854
-0.111453
-0.115355
-0.11914
-0.122378
-0.124813
-0.12614
-0.126099
-0.124386
-0.120537
-0.11421
-0.105153
-0.0932775
-0.0788827
-0.0623784
-0.0443458
-0.0253014
-0.0057355
0.0140343
0.0336686
0.0528089
0.0710014
0.0877543
0.102483
0.114816
0.124512
0.131621
0.136486
0.139547
0.141358
0.142432
0.143281
0.144221
0.145403
0.146773
0.148058
0.148904
0.149012
0.1481
0.14623
0.14354
0.140411
0.13721
0.134254
0.131653
0.129351
0.127127
0.12481
0.122205
0.119407
0.116514
0.113899
0.111824
0.110495
0.109861
0.109621
0.109299
0.10842
0.106678
0.104037
0.100678
0.0969326
0.093115
0.089289
0.0854119
0.081259
0.0767496
0.0719391
0.0671489
0.0628243
0.0592697
0.0566782
0.0549913
0.0539471
0.0532278
0.0525241
0.0516545
0.0504685
0.0490547
0.0474723
0.0458077
0.0441487
0.0425652
0.0410025
0.039317
0.0373423
0.0348427
0.0316894
0.0278309
0.0235446
0.0191935
0.0152926
0.0122769
0.0104244
0.009761
0.0100011
0.0108347
0.01191
0.0130206
0.0141263
0.0152399
0.0163064
0.017181
0.0176617
0.0174807
0.0165342
0.0149344
0.0129796
0.0110752
0.00958759
0.00874692
0.00854854
0.00879003
0.00917607
0.0095047
0.00954736
0.00915514
0.00829451
0.00696439
0.00541148
0.00407896
0.0037493
0.00515881
0.00898215
0.0154374
0.0241716
0.0343342
0.0448608
0.0547217
0.063327
0.0705594
0.0767184
0.0823093
0.0877175
0.0929795
0.0977896
0.101519
0.103492
0.10321
0.100505
0.0957381
0.0895525
0.0828527
0.076374
0.0707556
0.066446
0.0638724
0.06353
0.0659126
0.0712762
0.0792465
0.0886601
0.0974479
0.103251
0.104099
0.0989382
0.0881484
0.0732127
0.0562444
0.0392412
0.0236179
0.0099786
-0.00155572
-0.011166
-0.0189961
-0.0250191
-0.0293503
-0.0321809
-0.0339489
-0.0352514
-0.0367181
-0.0387512
-0.0414859
-0.04489
-0.048655
-0.0524456
-0.0558459
-0.0585873
-0.0601514
-0.0602148
-0.0585607
-0.0553078
-0.0510597
-0.0470333
-0.0452189
-0.0480074
-0.0576836
-0.0757799
-0.102326
-0.135392
-0.170742
-0.201815
-0.220457
-0.218047
-0.186903
-0.121345
-0.0183673
0.121825
0.29558
0.495375
0.709042
0.919125
1.10291
1.23432
1.28832
1.24766
1.10941
0.888678
0.617099
0.335851
0.0854952
-0.104336
-0.221416
-0.271344
-0.27279
-0.248966
-0.219946
-0.198084
-0.18738
-0.186053
-0.189923
-0.195178
-0.199645
-0.202804
-0.204895
-0.206367
-0.20737
-0.207805
-0.207563
-0.206548
-0.20468
-0.202015
-0.198694
-0.194908
-0.190977
-0.187097
-0.183444
-0.180079
-0.176967
-0.174157
-0.171565
-0.169275
-0.167317
-0.165746
-0.164642
-0.164018
-0.163779
-0.163775
-0.163833
-0.163747
-0.163423
-0.16289
-0.162199
-0.161484
-0.160802
-0.160126
-0.159436
-0.158665
-0.157838
-0.157099
-0.156586
-0.156385
-0.156413
-0.156453
-0.15614
-0.155159
-0.153424
-0.151073
-0.148427
-0.145932
-0.143857
-0.142287
-0.141133
-0.14018
-0.139228
-0.138238
-0.137392
-0.136861
-0.136884
-0.137536
-0.138757
-0.140314
-0.141957
-0.143549
-0.145041
-0.146526
-0.148222
-0.150271
-0.152671
-0.155098
-0.157075
-0.157943
-0.157103
-0.154147
-0.148828
-0.141098
-0.131048
-0.118753
-0.104347
-0.0879312
-0.0697775
-0.0504078
-0.0306376
-0.0115475
0.00587223
0.0208978
0.0332289
0.0431233
0.0512456
0.0584772
0.0656327
0.0731841
0.0813348
0.0898464
0.0983068
0.106154
0.112929
0.118298
0.122158
0.124675
0.126149
0.126995
0.127519
0.127816
0.127991
0.127894
0.127363
0.126288
0.124638
0.122477
0.119957
0.117248
0.114494
0.111724
0.108885
0.105776
0.10222
0.0982212
0.0938459
0.0894479
0.0853833
0.0820562
0.0796546
0.0781543
0.0772627
0.0765929
0.0758305
0.0747466
0.0732767
0.071509
0.0694313
0.0670669
0.0644025
0.061397
0.0580994
0.0546782
0.0513355
0.0482446
0.0453675
0.0424163
0.0389223
0.0345229
0.0290602
0.0227786
0.0162795
0.0103297
0.00570057
0.00283974
0.00186163
0.00243792
0.0040104
0.00596021
0.00765258
0.00861858
0.00859276
0.00747592
0.00539001
0.00261613
-0.000380846
-0.00315049
-0.005429
-0.00710506
-0.00837189
-0.00961331
-0.0111409
-0.0131221
-0.0155212
-0.0180551
-0.020487
-0.0225753
-0.0242052
-0.0253724
-0.0260827
-0.0262177
-0.0257444
-0.024661
-0.023055
-0.0212714
-0.0197805
-0.0190084
-0.0191962
-0.0202653
-0.0216745
-0.0225901
-0.0220809
-0.0193343
-0.0138146
-0.00569423
0.00440728
0.0153031
0.0255904
0.0340007
0.0397274
0.0425293
0.0430173
0.0421877
0.0413222
0.0415971
0.043774
0.0479947
0.0539603
0.0609046
0.0677718
0.0735115
0.0772659
0.0784773
0.0770688
0.0734595
0.0683362
0.0627574
0.0577351
0.0543459
0.0533599
0.0550778
0.0589717
0.0637528
0.0674483
0.067889
0.0633688
0.053245
0.03822
0.0201287
0.00154231
-0.015117
-0.0280856
-0.0366775
-0.0412406
-0.0427041
-0.0423221
-0.0412294
-0.0403062
-0.040019
-0.0405475
-0.0418358
-0.0437335
-0.0461239
-0.0487709
-0.051578
-0.0545137
-0.0574909
-0.0604826
-0.0633724
-0.0659157
-0.0677433
-0.0684896
-0.0679349
-0.0662059
-0.0637308
-0.0615882
-0.0613173
-0.0649369
-0.0743897
-0.0911288
-0.115544
-0.146324
-0.179842
-0.209835
-0.227836
-0.223828
-0.18736
-0.108817
0.018044
0.193227
0.407718
0.641547
0.864408
1.04011
1.13434
1.12426
1.00644
0.799735
0.541435
0.277457
0.0495976
-0.114835
-0.208144
-0.240351
-0.232251
-0.20662
-0.181006
-0.164419
-0.158125
-0.158991
-0.162892
-0.166781
-0.169363
-0.170907
-0.172019
-0.173125
-0.174212
-0.175079
-0.175417
-0.175135
-0.174311
-0.173157
-0.172011
-0.1711
-0.170538
-0.170396
-0.170545
-0.170697
-0.170422
-0.169263
-0.166893
-0.16317
-0.158267
-0.152596
-0.146836
-0.141631
-0.137393
-0.134337
-0.132353
-0.13107
-0.130076
-0.128927
-0.127331
-0.125136
-0.122476
-0.119636
-0.117053
-0.115094
-0.113957
-0.113679
-0.114041
-0.114731
-0.115434
-0.115927
-0.116088
-0.115919
-0.115426
-0.114673
-0.113727
-0.112732
-0.111781
-0.110952
-0.110215
-0.109449
-0.108431
-0.106979
-0.10498
-0.102592
-0.100117
-0.0979607
-0.0964707
-0.0957882
-0.095868
-0.0965067
-0.0974519
-0.0985643
-0.099802
-0.101332
-0.103242
-0.105581
-0.108221
-0.110879
-0.113105
-0.114361
-0.114126
-0.111914
-0.107367
-0.100354
-0.0909162
-0.0793678
-0.0662625
-0.0523345
-0.0385134
-0.025593
-0.0143064
-0.00506137
0.00216059
0.00766242
0.0121173
0.0163449
0.0210758
0.0269109
0.0340066
0.0421591
0.0508946
0.0595815
0.0676109
0.0746459
0.0805489
0.0853996
0.0893484
0.0925297
0.0950224
0.0968887
0.0982413
0.0992532
0.100037
0.10066
0.101151
0.101424
0.101421
0.10111
0.100457
0.0995223
0.0982445
0.0966331
0.094699
0.0923949
0.0897689
0.0870177
0.084175
0.0813235
0.0784149
0.0754347
0.072373
0.06934
0.0665282
0.0640607
0.0620716
0.0605806
0.0594719
0.0584978
0.057419
0.056118
0.0545076
0.052606
0.0503311
0.0474922
0.0439131
0.0393781
0.0340141
0.0281257
0.0222283
0.0168989
0.0125568
0.00923666
0.0066946
0.00450576
0.00225403
-0.00025329
-0.0029352
-0.00547506
-0.00753506
-0.00881406
-0.00928768
-0.00910664
-0.00869574
-0.00842354
-0.0086842
-0.00968408
-0.0113926
-0.0136366
-0.0160028
-0.0180953
-0.0196684
-0.0206554
-0.0212631
-0.021891
-0.0230998
-0.0251646
-0.0281371
-0.0317574
-0.0354503
-0.0386528
-0.0409369
-0.0421228
-0.0421653
-0.0412612
-0.0395492
-0.0372215
-0.0343878
-0.0312273
-0.0279636
-0.0250325
-0.0228865
-0.0219862
-0.0225771
-0.0244823
-0.0273303
-0.0303561
-0.0327143
-0.0336309
-0.0326216
-0.0296508
-0.0248694
-0.0187596
-0.0117875
-0.00427306
0.00351487
0.0113822
0.0191734
0.0266738
0.0336322
0.0399853
0.0458368
0.0515003
0.0574207
0.0639512
0.0710999
0.07848
0.0853035
0.090637
0.0937336
0.0941328
0.0919864
0.0878001
0.0823347
0.0763096
0.0702101
0.0643498
0.0588323
0.0539214
0.0500455
0.047832
0.0478246
0.0499796
0.0534268
0.0566323
0.0577062
0.0552287
0.0485534
0.0382524
0.025711
0.0126024
0.000309875
-0.0104143
-0.0193904
-0.0267823
-0.0327361
-0.0372515
-0.0403614
-0.0422132
-0.0432354
-0.0441026
-0.0453283
-0.047254
-0.0497495
-0.0523681
-0.0546052
-0.0561568
-0.0570778
-0.0577231
-0.0584762
-0.0596247
-0.0610687
-0.0625455
-0.0635466
-0.0637111
-0.0630419
-0.061856
-0.0607902
-0.0607792
-0.0628563
-0.0681446
-0.0776708
-0.092312
-0.112491
-0.138006
-0.16731
-0.196931
-0.22127
-0.232441
-0.220869
-0.1764
-0.089989
0.0433073
0.221229
0.431572
0.65126
0.848542
0.988753
1.04265
0.995118
0.850988
0.63517
0.3866
0.147749
-0.0465767
-0.177392
-0.243561
-0.258342
-0.242097
-0.214589
-0.189509
-0.172887
-0.164584
-0.161449
-0.160094
-0.158509
-0.156259
-0.153996
-0.152429
-0.151956
-0.152344
-0.152984
-0.153321
-0.152828
-0.151317
-0.148873
-0.145914
-0.142864
-0.140266
-0.138456
-0.137597
-0.137568
-0.138056
-0.138659
-0.138968
-0.138795
-0.137973
-0.136532
-0.134572
-0.132174
-0.129488
-0.126654
-0.123756
-0.120948
-0.118402
-0.116211
-0.114478
-0.113274
-0.112494
-0.112103
-0.111921
-0.111818
-0.111627
-0.11129
-0.110705
-0.109953
-0.109218
-0.108735
-0.108834
-0.109785
-0.111677
-0.114206
-0.116913
-0.119067
-0.120096
-0.119758
-0.118189
-0.115859
-0.113456
-0.111377
-0.109817
-0.108588
-0.107305
-0.105626
-0.103417
-0.1008
-0.0981022
-0.0956894
-0.0938367
-0.0927648
-0.0926155
-0.0934862
-0.0955487
-0.0989099
-0.103458
-0.108835
-0.114369
-0.119149
-0.122117
-0.122501
-0.119784
-0.113937
-0.105387
-0.0949337
-0.0836073
-0.0724782
-0.0623411
-0.0536671
-0.0464607
-0.0403996
-0.0349353
-0.0295029
-0.0237583
-0.0175817
-0.0111174
-0.00455979
0.00190204
0.00825769
0.0147419
0.0216347
0.0291771
0.0373995
0.0461759
0.0551006
0.0636127
0.0712514
0.0775285
0.0821437
0.0849492
0.0860171
0.0857235
0.0845652
0.0832243
0.0822916
0.0820667
0.0824888
0.0832101
0.0836833
0.0835307
0.0827225
0.0815783
0.0807021
0.0806896
0.0818308
0.0839935
0.0865502
0.0885418
0.0890653
0.0875162
0.083871
0.0786188
0.0726486
0.0668766
0.0620466
0.0585098
0.0561991
0.0547786
0.0538349
0.0530136
0.0520673
0.0507751
0.0489393
0.0463212
0.0427943
0.0384969
0.0338284
0.0295606
0.0264897
0.0252155
0.0258333
0.0277381
0.0298471
0.0310412
0.0305428
0.0280914
0.0241348
0.0195171
0.0150747
0.011407
0.00859951
0.00648012
0.00465244
0.0027525
0.000565952
-0.0020596
-0.0052066
-0.00892613
-0.0131382
-0.0175897
-0.0216949
-0.0248521
-0.0264859
-0.026445
-0.0250398
-0.0230071
-0.0211296
-0.0198799
-0.0191692
-0.018521
-0.0174661
-0.0157765
-0.0138039
-0.0123567
-0.0123626
-0.0143022
-0.017944
-0.0224531
-0.0266018
-0.0293131
-0.0299795
-0.0286225
-0.0258678
-0.022444
-0.0191625
-0.0164641
-0.0145368
-0.0131477
-0.0118573
-0.0100618
-0.00722774
-0.00297142
0.00275166
0.00966346
0.0171944
0.0246196
0.0314618
0.0375217
0.04291
0.0480324
0.0533311
0.0590121
0.0648156
0.0702095
0.0744515
0.0768455
0.0770543
0.075127
0.0716194
0.0671289
0.0623988
0.0579046
0.054026
0.0511615
0.049741
0.0500443
0.0518962
0.0544523
0.0561898
0.0552925
0.0503238
0.0408199
0.0274767
0.0119833
-0.00349634
-0.0171887
-0.0281031
-0.0362197
-0.0420023
-0.0463221
-0.0498711
-0.0530717
-0.0560921
-0.0588671
-0.061152
-0.0625671
-0.0628204
-0.0617252
-0.0593
-0.0558353
-0.0517388
-0.0474722
-0.043428
-0.0399298
-0.037184
-0.0353632
-0.0345582
-0.0348289
-0.0360333
-0.037807
-0.0397975
-0.0416354
-0.0432539
-0.0450299
-0.0478829
-0.053205
-0.062696
-0.0778352
-0.0995745
-0.127674
-0.16004
-0.192322
-0.217957
-0.228504
-0.214532
-0.1666
-0.077027
0.057903
0.235443
0.444115
0.66269
0.861731
1.00807
1.07257
1.03829
0.906566
0.698386
0.449835
0.20272
-0.00629424
-0.154478
-0.236451
-0.262121
-0.250497
-0.221931
-0.192185
-0.169915
-0.157151
-0.151996
-0.151221
-0.15223
-0.153742
-0.155495
-0.157588
-0.159906
-0.162076
-0.163598
-0.164234
-0.163877
-0.162659
-0.160856
-0.158655
-0.156126
-0.153216
-0.149889
-0.146153
-0.142144
-0.13812
-0.13434
-0.130972
-0.12818
-0.125966
-0.124249
-0.123045
-0.122278
-0.122015
-0.12222
-0.122746
-0.123417
-0.123914
-0.124013
-0.123616
-0.122727
-0.121447
-0.119928
-0.118302
-0.116636
-0.114988
-0.113496
-0.112248
-0.111336
-0.110818
-0.110631
-0.110657
-0.11077
-0.11084
-0.110696
-0.110202
-0.109137
-0.107417
-0.105124
-0.102406
-0.0995947
-0.0971515
-0.095334
-0.0943084
-0.0939781
-0.094004
-0.094152
-0.0942206
-0.0941493
-0.0940955
-0.0943535
-0.0951632
-0.0966633
-0.0988611
-0.101621
-0.104726
-0.107977
-0.111263
-0.11452
-0.117714
-0.120609
-0.122731
-0.123472
-0.121987
-0.117532
-0.109728
-0.0987258
-0.0852606
-0.0705713
-0.056121
-0.0433319
-0.0331781
-0.0259617
-0.0214579
-0.0189301
-0.0174113
-0.0159195
-0.0137536
-0.0104928
-0.00593615
2.50034e-5
0.00747893
0.0164709
0.0270155
0.0389069
0.0517133
0.0646834
0.0770251
0.0881855
0.0977962
0.105938
0.112906
0.119059
0.124708
0.129957
0.134743
0.139008
0.142656
0.145607
0.147837
0.149284
0.149838
0.149319
0.147636
0.144906
0.141498
0.137878
0.13466
0.13231
0.131061
0.130833
0.131168
0.131608
0.131641
0.130874
0.129322
0.127186
0.124787
0.122402
0.12028
0.118273
0.116143
0.113501
0.11008
0.10577
0.100796
0.095527
0.0904323
0.0859467
0.0823218
0.0796556
0.077764
0.0765083
0.0756245
0.0749852
0.074452
0.0739166
0.0733361
0.0725354
0.0714405
0.0699805
0.0681117
0.0658963
0.0634265
0.0608869
0.0583064
0.0558009
0.053371
0.0510206
0.0485802
0.0459763
0.0430647
0.0398016
0.0362314
0.0324595
0.0286479
0.0248882
0.0212482
0.017807
0.0147257
0.0121919
0.0104525
0.00960667
0.00959446
0.0100965
0.0107153
0.0110243
0.0108272
0.0101148
0.00899033
0.00768542
0.00641924
0.00540809
0.00475226
0.00444127
0.00447527
0.00462742
0.00462918
0.00419326
0.00307415
0.00123352
-0.00126157
-0.00420818
-0.00726045
-0.0100543
-0.0123288
-0.0137705
-0.0141442
-0.0133076
-0.0111744
-0.00774008
-0.00305995
0.00295614
0.0101923
0.0184913
0.0276767
0.0373405
0.0469319
0.0558336
0.0636122
0.0699924
0.0750105
0.0789955
0.0823948
0.085568
0.0886221
0.0913161
0.0931492
0.0936443
0.0924545
0.0896849
0.0858845
0.081787
0.0780657
0.0750772
0.0727841
0.0710747
0.0699059
0.0695748
0.0707837
0.0742003
0.0799343
0.0872083
0.0942915
0.0989984
0.0993603
0.0943582
0.0841606
0.0699514
0.0534194
0.0361881
0.0194127
0.00367307
-0.0107248
-0.0235259
-0.0343622
-0.0429336
-0.0488853
-0.052358
-0.053923
-0.0543356
-0.0544149
-0.0547209
-0.0553549
-0.0561772
-0.056769
-0.0567404
-0.0560102
-0.0548587
-0.0535814
-0.0524599
-0.0515927
-0.0509425
-0.050439
-0.0502762
-0.0510965
-0.0542125
-0.0613899
-0.074362
-0.0943482
-0.121512
-0.154192
-0.188434
-0.218246
-0.235574
-0.231579
-0.197467
-0.125382
-0.00969239
0.151063
0.351941
0.579352
0.809812
1.01166
1.1501
1.19549
1.13249
0.966595
0.724738
0.449178
0.186177
-0.0264386
-0.168141
-0.238382
-0.252605
-0.23413
-0.205231
-0.181142
-0.168173
-0.165565
-0.169236
-0.174675
-0.17879
-0.180437
-0.179822
-0.177822
-0.175229
-0.172706
-0.170598
-0.169188
-0.168424
-0.168134
-0.167994
-0.167759
-0.167211
-0.166244
-0.164839
-0.163051
-0.16106
-0.159038
-0.15725
-0.155924
-0.155231
-0.155098
-0.155441
-0.155884
-0.156047
-0.155447
-0.153842
-0.151087
-0.147369
-0.143041
-0.138634
-0.134704
-0.131729
-0.129879
-0.129175
-0.129301
-0.129771
-0.13016
-0.130112
-0.129566
-0.128602
-0.127413
-0.126203
-0.125093
-0.124039
-0.122899
-0.121487
-0.119715
-0.117488
-0.114854
-0.11197
-0.109111
-0.106566
-0.104599
-0.103388
-0.102947
-0.103124
-0.103683
-0.104338
-0.104942
-0.105418
-0.105894
-0.106632
-0.107948
-0.110038
-0.112965
-0.116509
-0.120341
-0.123948
-0.126868
-0.12872
-0.129252
-0.128179
-0.125324
-0.120436
-0.113291
-0.103713
-0.0917747
-0.0778369
-0.0625633
-0.0468426
-0.0315984
-0.0176788
-0.00558004
0.00454715
0.0129636
0.0202278
0.0270119
0.0338898
0.0412983
0.0493545
0.0579875
0.0668016
0.075432
0.0835153
0.090902
0.0976089
0.103885
0.109884
0.115657
0.121147
0.126016
0.129978
0.132764
0.134364
0.134908
0.134723
0.134109
0.133385
0.132762
0.132345
0.132126
0.131979
0.131661
0.130852
0.12921
0.126504
0.122697
0.118065
0.113009
0.108103
0.103771
0.100313
0.0976067
0.0954723
0.0935794
0.0916308
0.0895669
0.0874016
0.0851756
0.0828796
0.0804604
0.077808
0.0749079
0.0718626
0.0688536
0.0661171
0.0638648
0.062114
0.060785
0.0595091
0.0578996
0.0555159
0.0520053
0.047229
0.041386
0.0349242
0.0285064
0.0228153
0.0184886
0.0156947
0.0143753
0.0141873
0.0146286
0.0151896
0.0154667
0.0151533
0.0141294
0.0123525
0.00993201
0.00702839
0.00387163
0.000691207
-0.00234561
-0.0050819
-0.00760467
-0.00981746
-0.0116987
-0.0131426
-0.0140493
-0.0143274
-0.0140293
-0.0133038
-0.0123103
-0.0112214
-0.0102721
-0.00959823
-0.00930696
-0.00951117
-0.0101066
-0.0109714
-0.0118461
-0.0124067
-0.0125161
-0.012087
-0.011297
-0.0104016
-0.00967676
-0.00920983
-0.0089641
-0.00880225
-0.00826809
-0.00693251
-0.00431175
-5.7064e-5
0.00596113
0.0135965
0.022451
0.0319258
0.0414196
0.050416
0.0587163
0.0663323
0.073491
0.0803964
0.0869396
0.0927927
0.0973928
0.100051
0.100328
0.0980058
0.0934302
0.0873541
0.0808216
0.0749917
0.0709556
0.0696198
0.0712396
0.0753297
0.0805297
0.0849293
0.0866817
0.0844635
0.0779221
0.0678238
0.0556266
0.0428673
0.0307337
0.0197134
0.00965704
0.000286641
-0.00847696
-0.0162522
-0.0224761
-0.0265639
-0.028348
-0.0282071
-0.027027
-0.0259526
-0.0259208
-0.0274394
-0.0304301
-0.0343257
-0.0383913
-0.0420007
-0.0447758
-0.0465771
-0.047546
-0.047964
-0.0481119
-0.0483935
-0.049447
-0.0523572
-0.0586165
-0.0697802
-0.086928
-0.110054
-0.137177
-0.163845
-0.183012
-0.185535
-0.161074
-0.0996394
0.00605826
0.157695
0.34844
0.56106
0.768404
0.936974
1.0342
1.03719
0.940288
0.7582
0.52322
0.276913
0.0588975
-0.103189
-0.199175
-0.235627
-0.230283
-0.20435
-0.17553
-0.154248
-0.14366
-0.141908
-0.145134
-0.149754
-0.15355
-0.155758
-0.15652
-0.156385
-0.155912
-0.155575
-0.155715
-0.156352
-0.157227
-0.1579
-0.157879
-0.156864
-0.154808
-0.152028
-0.148917
-0.145912
-0.143233
-0.140875
-0.138733
-0.136613
-0.134403
-0.132134
-0.129882
-0.127733
-0.125643
-0.123463
-0.120966
-0.117959
-0.114456
-0.110739
-0.107229
-0.104421
-0.102676
-0.102113
-0.102479
-0.103439
-0.10457
-0.105569
-0.10629
-0.106745
-0.107
-0.106997
-0.106636
-0.105714
-0.104152
-0.101986
-0.0994643
-0.0970136
-0.0949896
-0.0936292
-0.0929572
-0.0927254
-0.0926182
-0.0924197
-0.0920866
-0.091751
-0.0917672
-0.0925458
-0.0942525
-0.0967995
-0.0998953
-0.102898
-0.105246
-0.106608
-0.107015
-0.106779
-0.106384
-0.106195
-0.106285
-0.106407
-0.105984
-0.104445
-0.10144
-0.0967991
-0.0906021
-0.0829571
-0.0738707
-0.0632002
-0.0508264
-0.0366602
-0.0209752
-0.00440738
0.0121556
0.0277311
0.0415091
0.0530557
0.0624439
0.0699901
0.0762117
0.0815791
0.0863379
0.0905149
0.0940135
0.0967594
0.0988615
0.10066
0.10256
0.105064
0.108379
0.112442
0.116804
0.120776
0.123621
0.124744
0.123894
0.121157
0.116973
0.11196
0.10675
0.10196
0.0979238
0.0948197
0.0925665
0.090984
0.0898892
0.0890945
0.0884171
0.0877091
0.0867194
0.0851762
0.0829875
0.080125
0.0769517
0.0738063
0.0711861
0.0693248
0.0681685
0.0673641
0.0664091
0.064657
0.0618032
0.0578024
0.052849
0.0473561
0.0417892
0.0364919
0.0317997
0.0277402
0.0243065
0.0214721
0.019051
0.0169615
0.0150945
0.0133122
0.0115894
0.00998216
0.00850562
0.00727713
0.00629204
0.00554077
0.00488116
0.00413863
0.0031196
0.00161117
-0.000630854
-0.00360052
-0.00731556
-0.0115794
-0.0161668
-0.0207744
-0.02519
-0.0291272
-0.0323579
-0.0344394
-0.0349815
-0.0336901
-0.030586
-0.0261618
-0.0212968
-0.0169247
-0.0138533
-0.0124019
-0.0123981
-0.0133326
-0.0146818
-0.016061
-0.0173147
-0.0184575
-0.0194612
-0.0202744
-0.0207348
-0.020694
-0.0201995
-0.0193386
-0.0182427
-0.0169492
-0.0152086
-0.0127245
-0.00915954
-0.0044247
0.00129385
0.00749517
0.0136822
0.0195548
0.0252066
0.0310228
0.037544
0.0450998
0.0535473
0.0622148
0.0701208
0.0761845
0.0796673
0.0802159
0.0779783
0.0735768
0.0677988
0.0615358
0.0558435
0.0517187
0.0500422
0.0511535
0.054454
0.058489
0.0610739
0.0598927
0.053263
0.0407095
0.0232344
0.00296274
-0.017399
-0.0353818
-0.0491544
-0.0580284
-0.0622837
-0.0629663
-0.0615441
-0.0595727
-0.0583115
-0.0583546
-0.0595412
-0.0612753
-0.0626319
-0.0628964
-0.0617895
-0.0595873
-0.0569819
-0.0547114
-0.0532234
-0.0525337
-0.0522744
-0.0519002
-0.0511194
-0.0500048
-0.049234
-0.0500523
-0.0540913
-0.062991
-0.0781453
-0.100239
-0.128869
-0.161841
-0.194645
-0.220006
-0.227892
-0.206202
-0.14295
-0.0295327
0.134778
0.339143
0.559672
0.761784
0.90722
0.964165
0.917105
0.772724
0.559041
0.317776
0.092558
-0.083129
-0.193322
-0.240558
-0.240958
-0.215913
-0.184561
-0.159114
-0.14397
-0.138047
-0.137894
-0.140195
-0.142833
-0.144955
-0.146458
-0.147367
-0.147537
-0.146758
-0.144973
-0.142375
-0.139388
-0.136672
-0.134787
-0.134115
-0.134693
-0.136189
-0.138099
-0.139691
-0.140396
-0.139903
-0.138243
-0.135787
-0.133164
-0.130973
-0.129696
-0.129452
-0.130001
-0.130683
-0.13077
-0.129702
-0.12712
-0.123145
-0.118226
-0.112986
-0.108007
-0.10375
-0.100452
-0.0982872
-0.0973384
-0.0976882
-0.0993151
-0.102047
-0.105506
-0.109166
-0.112416
-0.114758
-0.11571
-0.114993
-0.112546
-0.108487
-0.103148
-0.0970254
-0.0907666
-0.0850727
-0.0806602
-0.0780668
-0.0776772
-0.0795688
-0.0834763
-0.0887318
-0.0944817
-0.0997865
-0.103947
-0.106544
-0.107622
-0.107559
-0.106964
-0.106391
-0.106296
-0.106969
-0.10861
-0.111232
-0.114786
-0.119145
-0.123833
-0.12816
-0.131088
-0.131395
-0.127837
-0.119598
-0.106285
-0.0882463
-0.0664095
-0.0421838
-0.0171568
0.00696853
0.0287716
0.0471475
0.0615762
0.0720703
0.0792028
0.0839927
0.087477
0.090407
0.0931014
0.0952905
0.0964936
0.0962778
0.0947859
0.0927157
0.0911796
0.0912907
0.0935562
0.0976649
0.102534
0.106734
0.109044
0.108972
0.106858
0.103695
0.100618
0.098459
0.0974148
0.0971631
0.0969579
0.0961576
0.0942453
0.0910182
0.0867013
0.0816762
0.0764209
0.0714565
0.0671839
0.0639451
0.0618323
0.0608351
0.0607707
0.061203
0.061673
0.0616153
0.060534
0.0581517
0.0543326
0.0493306
0.0436009
0.0378326
0.0327113
0.0287646
0.0263277
0.025302
0.0253749
0.0259302
0.0264068
0.0263236
0.0252928
0.0231206
0.0198505
0.0155629
0.0104212
0.00469866
-0.00113279
-0.00661669
-0.0112389
-0.0145704
-0.0163442
-0.0164242
-0.0149619
-0.0123451
-0.00904596
-0.00571562
-0.00287927
-0.000975434
-0.000113826
-0.000125997
-0.000643268
-0.00117458
-0.00143401
-0.00134331
-0.00118636
-0.0013422
-0.00214987
-0.00367235
-0.00576156
-0.00803035
-0.0101151
-0.0118612
-0.0133749
-0.0149049
-0.0167537
-0.0188358
-0.0208372
-0.0222199
-0.0224175
-0.0209855
-0.0178127
-0.0129723
-0.00675528
0.000523196
0.0084065
0.0164869
0.0244623
0.0321663
0.039597
0.0469312
0.0543582
0.0617375
0.0685952
0.074163
0.0776871
0.0786305
0.077093
0.0737082
0.0692778
0.0645561
0.060005
0.0557089
0.0519414
0.0490309
0.0475368
0.0477318
0.0493122
0.0510412
0.0510454
0.047297
0.0385471
0.0248513
0.00763327
-0.0106915
-0.0275137
-0.040812
-0.0496289
-0.0540348
-0.0549493
-0.0535964
-0.0513213
-0.049185
-0.0478645
-0.0476125
-0.0484205
-0.0500966
-0.0523899
-0.0550143
-0.0579129
-0.0609076
-0.0638651
-0.0665694
-0.0685919
-0.0694879
-0.0690192
-0.06715
-0.064247
-0.0610927
-0.0589879
-0.0596656
-0.0649756
-0.0766188
-0.0956922
-0.122055
-0.153488
-0.185218
-0.209864
-0.21771
-0.197614
-0.13865
-0.0325741
0.122995
0.321281
0.544312
0.763138
0.941898
1.04561
1.0498
0.948511
0.757861
0.512811
0.257782
0.0344992
-0.128802
-0.222737
-0.255558
-0.246796
-0.218694
-0.188922
-0.167211
-0.155627
-0.151668
-0.151379
-0.151649
-0.151084
-0.149667
-0.148012
-0.146642
-0.145707
-0.145222
-0.14513
-0.145317
-0.14575
-0.146282
-0.146692
-0.146721
-0.146125
-0.144693
-0.142483
-0.139607
-0.136346
-0.133076
-0.130138
-0.127731
-0.126026
-0.12498
-0.12445
-0.124202
-0.124032
-0.123793
-0.123346
-0.122731
-0.121942
-0.121016
-0.119926
-0.1186
-0.116834
-0.114501
-0.111494
-0.10791
-0.104056
-0.10038
-0.0973456
-0.0953342
-0.0943926
-0.0943995
-0.0949536
-0.0955842
-0.0959143
-0.0958164
-0.0952991
-0.0944794
-0.093551
-0.0926977
-0.0920035
-0.0915279
-0.091329
-0.0913857
-0.0916231
-0.0917875
-0.0916647
-0.0909791
-0.0896146
-0.0877675
-0.0858529
-0.0844907
-0.0842392
-0.0854861
-0.0882945
-0.09253
-0.0978514
-0.103804
-0.110019
-0.116092
-0.121719
-0.126601
-0.13042
-0.13288
-0.133445
-0.131612
-0.126842
-0.118826
-0.107594
-0.0936272
-0.0778677
-0.0614118
-0.0452301
-0.0299587
-0.0157697
-0.00248041
0.0102321
0.0226475
0.0349389
0.0470917
0.0589974
0.0706683
0.0820697
0.0931964
0.103952
0.11393
0.122606
0.129322
0.133591
0.135354
0.134871
0.132836
0.130046
0.127276
0.124984
0.123354
0.122359
0.121731
0.121231
0.120677
0.119936
0.119021
0.117965
0.116866
0.115793
0.114782
0.113856
0.112905
0.111866
0.110651
0.109207
0.107518
0.105557
0.103343
0.100867
0.0981469
0.095193
0.0920391
0.0886575
0.0850499
0.0812225
0.0771532
0.0728953
0.0685543
0.0643621
0.060645
0.0576207
0.0553998
0.0539496
0.0530627
0.0523649
0.0515488
0.0503401
0.0486731
0.0466319
0.0443967
0.0421236
0.0399178
0.037687
0.0352923
0.0325443
0.0293842
0.0258358
0.0221783
0.0188356
0.0160577
0.0140159
0.0126874
0.0118731
0.0114134
0.011218
0.0112064
0.011437
0.0118738
0.0123541
0.0126772
0.0126784
0.012249
0.0114082
0.0103422
0.00917143
0.00798334
0.00684652
0.0056427
0.00431346
0.00277806
0.000997721
-0.00106101
-0.00333679
-0.00582854
-0.0084741
-0.0110684
-0.0134452
-0.0154435
-0.0169764
-0.0180332
-0.0187026
-0.0190547
-0.0191505
-0.0188916
-0.0181507
-0.0168743
-0.0150879
-0.0129618
-0.0105879
-0.0079924
-0.00485186
-0.000701024
0.00494055
0.012339
0.0213643
0.0314597
0.0417109
0.0511594
0.0589636
0.06472
0.068383
0.0703045
0.0710996
0.0714673
0.0721424
0.0736154
0.0760832
0.0794185
0.0831523
0.0865862
0.0890166
0.08988
0.088893
0.0861262
0.081958
0.0769865
0.0719954
0.0679165
0.065688
0.0660405
0.0690771
0.0739796
0.0791184
0.0822971
0.0815052
0.0754711
0.0640966
0.0484225
0.0302819
0.0117445
-0.00545622
-0.0201207
-0.0316259
-0.039873
-0.0450578
-0.0477681
-0.0489024
-0.0495054
-0.0505648
-0.0527034
-0.0560507
-0.0600834
-0.0639438
-0.0666506
-0.0675144
-0.0663284
-0.0633192
-0.0591424
-0.054592
-0.050432
-0.0473144
-0.0459793
-0.047414
-0.0528663
-0.0637641
-0.0812484
-0.105534
-0.135279
-0.166986
-0.194769
-0.210804
-0.206381
-0.173345
-0.105786
-0.00148877
0.137313
0.304084
0.489409
0.682433
0.872132
1.04751
1.19655
1.30491
1.35625
1.33508
1.23181
1.04846
0.801931
0.52264
0.248177
0.0137702
-0.156883
-0.256813
-0.295249
-0.291852
-0.268828
-0.24395
-0.227078
-0.220399
-0.221277
-0.225677
-0.230317
-0.23353
-0.235251
-0.235959
-0.23618
-0.236144
-0.235803
-0.235042
-0.233804
-0.232143
-0.230247
-0.228422
-0.226971
-0.225957
-0.22531
-0.224735
-0.223885
-0.222567
-0.220611
-0.21803
-0.214895
-0.211295
-0.207235
-0.202878
-0.198431
-0.194206
-0.190664
-0.18819
-0.186977
-0.187037
-0.188045
-0.189593
-0.191203
-0.192539
-0.193361
-0.19369
-0.193612
-0.193245
-0.192726
-0.192162
-0.191593
-0.190975
-0.190273
-0.189372
-0.188212
-0.186765
-0.185072
-0.183238
-0.181421
-0.179633
-0.177853
-0.175975
-0.173837
-0.17138
-0.168716
-0.166157
-0.16404
-0.162691
-0.162389
-0.163097
-0.164703
-0.166838
-0.169233
-0.171597
-0.173746
-0.175506
-0.176719
-0.177272
-0.176949
-0.175568
-0.172921
-0.168885
-0.163343
-0.156194
-0.147362
-0.136674
-0.124015
-0.109335
-0.0928198
-0.0750384
-0.0569198
-0.0395165
-0.0238853
-0.0106826
-1.79392e-6
0.00855535
0.0158568
0.022802
0.0301219
0.0381134
0.0467811
0.0557614
0.0646377
0.0730333
0.080746
0.0877338
0.094101
0.0999334
0.105248
0.109892
0.113712
0.116518
0.118292
0.119253
0.119597
0.119665
0.119565
0.119253
0.118545
0.117253
0.11529
0.112727
0.109733
0.106474
0.10316
0.100013
0.0970547
0.0944442
0.0922403
0.0904641
0.0890294
0.0878324
0.086601
0.0852297
0.08367
0.0820528
0.0805465
0.0792353
0.0780847
0.0768449
0.075388
0.0734387
0.0709607
0.0680201
0.0647627
0.0612809
0.0576184
0.053693
0.0494713
0.0450604
0.0406179
0.0363931
0.0326605
0.0295369
0.0270111
0.0250944
0.0236489
0.0225378
0.0216596
0.020805
0.0198186
0.0185278
0.0167474
0.0144131
0.0115723
0.00850579
0.00548883
0.00283056
0.000777503
-0.000579895
-0.00127185
-0.00143438
-0.00126844
-0.000992268
-0.000794833
-0.000862537
-0.0013003
-0.00227501
-0.00377127
-0.00573282
-0.00783488
-0.00979334
-0.0111957
-0.0118303
-0.0116068
-0.0107288
-0.00951942
-0.00847105
-0.00801992
-0.00836663
-0.00939301
-0.0107932
-0.0120806
-0.0128186
-0.0127642
-0.0119302
-0.0106417
-0.00929172
-0.00835532
-0.00803208
-0.00814808
-0.00825722
-0.00753004
-0.00513863
-0.000577063
0.0061794
0.0145354
0.0234592
0.0318102
0.038742
0.0439464
0.0478041
0.0511142
0.054758
0.0594632
0.0654687
0.0725012
0.0798936
0.0867231
0.0921514
0.0955303
0.0965753
0.0954425
0.0924524
0.088043
0.0826462
0.0766032
0.0703301
0.064406
0.0596843
0.0571373
0.0574659
0.0607051
0.0658482
0.071019
0.073981
0.0728893
0.0668313
0.0560825
0.0419685
0.0263084
0.0108501
-0.00328063
-0.0154589
-0.0255217
-0.0335344
-0.0395435
-0.0436346
-0.0460779
-0.0472327
-0.0475093
-0.0473618
-0.0471751
-0.0470238
-0.0469277
-0.0467991
-0.0465967
-0.0463112
-0.0461683
-0.0462258
-0.0464501
-0.046603
-0.0464196
-0.0456524
-0.0444967
-0.0436477
-0.0444545
-0.0488264
-0.0586516
-0.0754243
-0.0995757
-0.129929
-0.163407
-0.194926
-0.218185
-0.226912
-0.216386
-0.1844
-0.131515
-0.0603108
0.0262291
0.126264
0.239902
0.368982
0.515304
0.678034
0.851006
1.02106
1.16794
1.26704
1.29458
1.23437
1.08424
0.859209
0.589757
0.315064
0.0730984
-0.108849
-0.220098
-0.266929
-0.267612
-0.244536
-0.216904
-0.196353
-0.186586
-0.185703
-0.189658
-0.19485
-0.19926
-0.202467
-0.204765
-0.206502
-0.207755
-0.208397
-0.208249
-0.207324
-0.205682
-0.203489
-0.200981
-0.198228
-0.19541
-0.192607
-0.189829
-0.18717
-0.184635
-0.182322
-0.18017
-0.178186
-0.176163
-0.17399
-0.171548
-0.168831
-0.166008
-0.163347
-0.161091
-0.159497
-0.15863
-0.158488
-0.158943
-0.1598
-0.160821
-0.16165
-0.162014
-0.161703
-0.160612
-0.159009
-0.157147
-0.155355
-0.153883
-0.152705
-0.151732
-0.150731
-0.149641
-0.148399
-0.147095
-0.145747
-0.144273
-0.142471
-0.140076
-0.137043
-0.133574
-0.130107
-0.12728
-0.12565
-0.125539
-0.126932
-0.129513
-0.132844
-0.136551
-0.140236
-0.143746
-0.146904
-0.149597
-0.151736
-0.153239
-0.154172
-0.154607
-0.15461
-0.154066
-0.152654
-0.1498
-0.14479
-0.136888
-0.125669
-0.111154
-0.0938657
-0.0748455
-0.0554479
-0.0370932
-0.0209579
-0.0077015
0.00262125
0.0104189
0.0164929
0.0217894
0.0270351
0.0327781
0.0391899
0.0462043
0.0535864
0.0610746
0.0684767
0.0757492
0.0829826
0.0902676
0.0976984
0.105173
0.112393
0.118807
0.123787
0.126775
0.12745
0.125827
0.12232
0.117607
0.112551
0.107912
0.104193
0.101663
0.100192
0.0993848
0.0988463
0.0981411
0.0970815
0.0957731
0.0943805
0.0932102
0.0924745
0.0921703
0.0921047
0.0920879
0.0919778
0.0916904
0.0911932
0.0904486
0.0893933
0.0877896
0.0853877
0.0820039
0.0775211
0.0720341
0.0657181
0.0590089
0.0523753
0.0463131
0.0411605
0.0371949
0.0342967
0.0321584
0.0303521
0.0283659
0.0260887
0.0236132
0.0212317
0.019242
0.017648
0.0161866
0.0143048
0.0115479
0.00777724
0.00345076
-0.000739208
-0.00387065
-0.00535506
-0.00514063
-0.00371871
-0.00198472
-0.000735368
-0.000591169
-0.00165144
-0.00372724
-0.00635163
-0.00910456
-0.0117347
-0.0140875
-0.0162039
-0.0180383
-0.0195609
-0.0205647
-0.0208719
-0.0204212
-0.0192862
-0.0177342
-0.0161302
-0.0147562
-0.0137008
-0.0129467
-0.0122696
-0.0117337
-0.0114125
-0.0116236
-0.0125805
-0.0141129
-0.0155337
-0.0157123
-0.0134978
-0.00821578
-6.68303e-5
0.00973414
0.01952
0.0276628
0.0332018
0.0361948
0.037701
0.0391104
0.0416207
0.0458694
0.0517619
0.0586375
0.0656287
0.0719071
0.0768862
0.0802233
0.0817585
0.081705
0.0803571
0.0782385
0.0758327
0.0735076
0.0713377
0.0691892
0.0668152
0.0640892
0.0612975
0.0590241
0.0578182
0.0577849
0.058396
0.0584895
0.0564789
0.0508817
0.0409844
0.0269876
0.0100487
-0.0079715
-0.0249481
-0.0391206
-0.0493197
-0.0551638
-0.057139
-0.0563286
-0.0541932
-0.052195
-0.0513653
-0.052184
-0.0544841
-0.0576132
-0.0607645
-0.0631202
-0.0642982
-0.0643091
-0.0634848
-0.0622843
-0.0609945
-0.0597833
-0.0586223
-0.0574023
-0.0563263
-0.0560628
-0.0577489
-0.0629303
-0.0731465
-0.0894824
-0.112162
-0.140087
-0.170407
-0.198267
-0.217122
-0.219176
-0.19616
-0.14037
-0.0458806
0.0895842
0.262791
0.463401
0.673204
0.867088
1.01654
1.09519
1.08536
0.9836
0.802813
0.569987
0.320085
0.0877737
-0.100038
-0.228949
-0.298136
-0.317567
-0.303321
-0.272328
-0.238363
-0.210292
-0.191737
-0.182293
-0.179191
-0.179081
-0.179402
-0.178902
-0.177526
-0.176005
-0.175101
-0.175149
-0.175927
-0.176729
-0.17668
-0.175079
-0.17156
-0.166223
-0.159709
-0.152876
-0.146662
-0.141958
-0.139271
-0.138663
-0.139666
-0.141378
-0.142869
-0.143301
-0.14232
-0.139922
-0.136582
-0.132821
-0.129136
-0.125822
-0.122959
-0.120495
-0.118397
-0.116628
-0.115295
-0.114518
-0.114361
-0.114867
-0.115896
-0.117272
-0.118598
-0.119469
-0.119617
-0.118815
-0.117123
-0.114865
-0.112542
-0.110736
-0.109816
-0.109953
-0.110824
-0.111957
-0.112783
-0.112929
-0.112346
-0.111372
-0.110483
-0.110155
-0.110677
-0.112088
-0.114088
-0.116172
-0.11781
-0.118479
-0.11786
-0.11596
-0.113191
-0.110354
-0.108379
-0.108111
-0.110022
-0.113922
-0.118977
-0.123959
-0.127551
-0.128605
-0.126502
-0.121194
-0.113024
-0.102783
-0.0914109
-0.0798303
-0.0689718
-0.0596625
-0.052426
-0.0474305
-0.044359
-0.0422781
-0.0398578
-0.0356708
-0.0287011
-0.0185322
-0.00566656
0.00889179
0.0238811
0.0382524
0.0514376
0.0633973
0.0742727
0.0841526
0.0928939
0.100026
0.105175
0.108215
0.109366
0.109314
0.108851
0.108635
0.108999
0.1099
0.110971
0.111748
0.111859
0.110991
0.109038
0.106073
0.102263
0.0979027
0.0934571
0.089459
0.0863058
0.0841833
0.083122
0.0828136
0.0828927
0.0830947
0.0831632
0.0830741
0.0827812
0.0823978
0.0819557
0.0814499
0.0809126
0.0803082
0.0795064
0.0783724
0.0767119
0.0743729
0.0713983
0.0679632
0.0644506
0.0610946
0.0581116
0.0552711
0.0522505
0.0485555
0.0440206
0.0388451
