-0.115765
-0.114008
-0.112368
-0.110774
-0.109201
-0.107767
-0.106669
-0.106122
-0.106233
-0.106862
-0.107648
-0.108178
-0.107939
-0.106757
-0.104616
-0.101797
-0.0986139
-0.0953624
-0.0922714
-0.0893654
-0.0867416
-0.0844055
-0.0824179
-0.0808691
-0.0797081
-0.0788261
-0.0780398
-0.0773197
-0.0766469
-0.0762019
-0.0762122
-0.076863
-0.0781249
-0.0797043
-0.0811915
-0.0821635
-0.0823817
-0.0817842
-0.0806675
-0.0793458
-0.0781919
-0.0773423
-0.0768186
-0.0764759
-0.0761103
-0.0755234
-0.0746118
-0.0733081
-0.0716882
-0.0699035
-0.0681302
-0.0666158
-0.0656265
-0.0654214
-0.0662742
-0.0683284
-0.0715417
-0.07566
-0.0801738
-0.0845222
-0.0881157
-0.090416
-0.0910632
-0.0897894
-0.0864118
-0.0807507
-0.0726442
-0.0622557
-0.049948
-0.0365574
-0.023196
-0.0110884
-0.00115144
0.00604125
0.010634
0.0133284
0.0153132
0.0177453
0.0216229
0.0275099
0.0353207
0.0446521
0.0546903
0.064616
0.073745
0.0817217
0.0886236
0.0947083
0.100358
0.105784
0.110935
0.115492
0.118887
0.120792
0.121129
0.12026
0.118885
0.11775
0.117402
0.117994
0.119266
0.120749
0.12187
0.12229
0.121876
0.120781
0.119302
0.117629
0.115884
0.114022
0.111852
0.109352
0.106501
0.103352
0.100066
0.0967044
0.0933189
0.0898366
0.0862405
0.0825323
0.0788537
0.0754065
0.0723743
0.0699171
0.0679767
0.0664237
0.0650769
0.0637969
0.0624654
0.0610491
0.059566
0.0579052
0.055979
0.0536528
0.0507809
0.0473654
0.0436365
0.0398092
0.0362177
0.0331522
0.0306934
0.0288083
0.0272714
0.0257314
0.023856
0.0213867
0.0182927
0.0147951
0.0113176
0.00833754
0.00635184
0.00561877
0.00613903
0.00769541
0.00991234
0.0123548
0.0145751
0.0162157
0.0170169
0.0168279
0.0156398
0.0136114
0.0110153
0.00821241
0.00558844
0.00347656
0.00215033
0.00165173
0.00198518
0.00313159
0.00501618
0.00763233
0.0108869
0.0145992
0.0185561
0.0225046
0.0261309
0.0292764
0.031846
0.0339777
0.0358963
0.0379157
0.0403703
0.0436077
0.047872
0.0532334
0.0596494
0.0668378
0.074314
0.0815529
0.0879713
0.0930348
0.0962695
0.0974258
0.0963723
0.0933174
0.0889077
0.0841172
0.0801576
0.0783012
0.0793585
0.0833038
0.0890235
0.0943932
0.0969929
0.0946732
0.0863748
0.0724954
0.0546426
0.035084
0.016013
-0.000959576
-0.0150795
-0.0262723
-0.0347841
-0.0410026
-0.0452653
-0.0479742
-0.0498101
-0.0514481
-0.0535248
-0.0564057
-0.0600333
-0.0639933
-0.0676537
-0.0704877
-0.0722439
-0.0730144
-0.0730976
-0.0728335
-0.0725765
-0.0725081
-0.07269
-0.0732874
-0.074638
-0.077469
-0.0828788
-0.0921015
-0.106333
-0.126315
-0.151881
-0.181498
-0.212001
-0.238492
-0.254739
-0.253971
-0.229139
-0.173496
-0.0815416
0.0495969
0.217741
0.41341
0.618307
0.805795
0.944884
1.00713
0.975009
0.848426
0.646729
0.404704
0.163535
-0.039946
-0.182289
-0.257536
-0.275534
-0.255802
-0.219805
-0.184415
-0.15894
-0.145576
-0.141871
-0.143653
-0.147299
-0.150661
-0.152961
-0.154233
-0.154643
-0.154302
-0.153353
-0.151793
-0.149782
-0.147492
-0.145205
-0.143158
-0.141653
-0.140819
-0.140495
-0.140329
-0.139659
-0.137849
-0.134374
-0.129199
-0.122689
-0.115694
-0.109264
-0.104299
-0.101284
-0.10021
-0.100508
-0.101423
-0.102137
-0.102189
-0.101409
-0.100067
-0.0985244
-0.0972967
-0.0966309
-0.0966034
-0.0970331
-0.0976066
-0.0978528
-0.0974011
-0.096029
-0.09363
-0.0903859
-0.0865425
-0.0824411
-0.0782867
-0.074262
-0.0705637
-0.0673029
-0.0647356
-0.0631357
-0.0627336
-0.0635789
-0.065365
-0.0674848
-0.0691939
-0.069891
-0.0693687
-0.0678382
-0.0659869
-0.0646343
-0.0644554
-0.0656322
-0.0679035
-0.0707072
-0.0733449
-0.0753612
-0.0765706
-0.0771363
-0.0774321
-0.0777389
-0.0782263
-0.0788463
-0.0791666
-0.0786334
-0.076524
-0.0721928
-0.0652094
-0.0555819
-0.0437507
-0.0307454
-0.0178553
-0.00632389
0.00300865
0.00978444
0.0144031
0.0176316
0.0204104
0.0235638
0.0275533
0.0325461
0.0385599
0.0455053
0.05307
0.0609797
0.0688868
0.0762601
0.0826021
0.0875741
0.0909854
0.0929398
0.0937076
0.0935752
0.0928712
0.091811
0.0903955
0.0886373
0.0865448
0.084167
0.0817161
0.0794666
0.0776293
0.0763286
0.075529
0.0749864
0.0745066
0.073994
0.0733996
0.0727369
0.0721329
0.0715294
0.0707066
0.0693205
0.067045
0.0637186
0.0594412
0.0545398
0.0495401
0.0449567
0.0410764
0.0379462
0.0353406
0.0328838
0.0302464
0.0273298
0.0242035
0.0211192
0.0183274
0.0159369
0.0139456
0.0122707
0.0108779
0.00981339
0.00913947
0.00891903
0.00913878
0.00949987
0.00961371
0.00912313
0.00787028
0.00590197
0.00362243
0.00153898
3.86525e-5
-0.00059654
-0.000381462
0.00039584
0.00136853
0.00214657
0.00243955
0.00207678
0.00110648
-0.000321316
-0.00191823
-0.0032948
-0.00414345
-0.00425133
-0.00363434
-0.00245247
-0.000993418
0.000565481
0.00196459
0.00311768
0.00385023
0.00397799
0.00325218
0.00156173
-0.00106945
-0.00416022
-0.00694242
-0.00847904
-0.00794914
-0.00496537
0.000312509
0.00722636
0.0148848
0.0224226
0.0292937
0.0353946
0.0410253
0.046696
0.0530159
0.0603821
0.0688158
0.0779223
0.0869323
0.0947922
0.100468
0.103181
0.102763
0.0996144
0.0946656
0.0892458
0.0848485
0.0828015
0.0841468
0.089115
0.0970024
0.105958
0.113277
0.11606
0.112063
0.100461
0.082144
0.0593964
0.0352138
0.0124292
-0.00716515
-0.0228059
-0.0345716
-0.0430539
-0.0488445
-0.052501
-0.0544901
-0.0553755
-0.055955
-0.0569005
-0.0586373
-0.0612266
-0.0643199
-0.0673197
-0.0698442
-0.0716449
-0.0729348
-0.0739631
-0.0748631
-0.075665
-0.0762534
-0.0765106
-0.0766616
-0.0775348
-0.0804257
-0.0869468
-0.0985534
-0.116316
-0.140333
-0.169466
-0.201207
-0.231912
-0.257148
-0.272137
-0.272013
-0.25164
-0.204933
-0.125463
-0.0082093
0.147044
0.331918
0.52691
0.702506
0.824817
0.864981
0.809108
0.664351
0.458183
0.230916
0.0238305
-0.132341
-0.224431
-0.257158
-0.247543
-0.216829
-0.183011
-0.156817
-0.141394
-0.134967
-0.133943
-0.135021
-0.136123
-0.136559
-0.136269
-0.135458
-0.134375
-0.133171
-0.132083
-0.131324
-0.130981
-0.131033
-0.13125
-0.131239
-0.130527
-0.128812
-0.125836
-0.12173
-0.116891
-0.111878
-0.107238
-0.103357
-0.100263
-0.0977897
-0.095506
-0.0929895
-0.0898457
-0.0859608
-0.0813846
-0.0764423
-0.0716088
-0.0674301
-0.0644492
-0.06294
-0.0628691
-0.0638686
-0.0653768
-0.066642
-0.0671805
-0.0667877
-0.0656593
-0.0641604
-0.0627411
-0.0616443
-0.0608337
-0.0601056
-0.0591321
-0.0576242
-0.055588
-0.053136
-0.0505821
-0.048219
-0.0463361
-0.0448598
-0.0437339
-0.0426675
-0.0415729
-0.0404492
-0.0394356
-0.0388192
-0.0387782
-0.0393874
-0.0403949
-0.0415866
-0.0427967
-0.0441303
-0.0458601
-0.0483379
-0.051759
-0.0559563
-0.0604856
-0.0646389
-0.0678773
-0.069927
-0.0707812
-0.0706729
-0.0696905
-0.0676726
-0.0641015
-0.0583657
-0.0498565
-0.038434
-0.0244575
-0.00887551
0.0070625
0.0220675
0.0350461
0.0454089
0.052968
0.058087
0.061543
0.064396
0.0676003
0.0718258
0.0771993
0.0832617
0.089091
0.0935829
0.0960459
0.0961421
0.0942551
0.0911806
0.0878058
0.0848494
0.0826652
0.0812744
0.0804054
0.0797014
0.0788765
0.0777476
0.0762499
0.0744893
0.072634
0.0709067
0.0695903
0.0689211
0.069066
0.0699105
0.071223
0.0725116
0.0731408
0.0724842
0.070142
0.0660875
0.0606542
0.0546471
0.0489211
0.0443022
0.0412287
0.0395943
0.0388778
0.0383187
0.0372906
0.0355147
0.0330976
0.030421
0.0279217
0.0258887
0.0242271
0.0227648
0.0212263
0.0193705
0.0171575
0.0148078
0.0125898
0.0107499
0.00945693
0.00868948
0.00832412
0.0081129
0.00781046
0.00721924
0.00613784
0.004383
0.00188156
-0.00133278
-0.00510481
-0.0090294
-0.0125167
-0.0149145
-0.0156347
-0.0144646
-0.0115997
-0.00770098
-0.00347877
0.000248803
0.0029374
0.00448101
0.00505933
0.0048968
0.00421224
0.0030683
0.00138108
-0.000895052
-0.00370574
-0.00672023
-0.00949304
-0.0116785
-0.0129643
-0.0131919
-0.0124078
-0.0106458
-0.00789282
-0.0041672
0.000511106
0.00606093
0.0123479
0.0192573
0.0266743
0.0344805
0.0425094
0.0504836
0.0581888
0.065391
0.0719677
0.0778968
0.0832094
0.0878141
0.0914026
0.093562
0.0938651
0.0921254
0.088662
0.0843434
0.0803668
0.0780551
0.07843
0.0817872
0.0874683
0.0938669
0.0987522
0.0999074
0.0957354
0.0857453
0.07069
0.0522562
0.0324611
0.0132663
-0.00399097
-0.0187347
-0.0309406
-0.0408725
-0.0487801
-0.054811
-0.0589692
-0.0614087
-0.0623356
-0.0620392
-0.0609086
-0.0592972
-0.0574451
-0.0555714
-0.0537625
-0.0521592
-0.0508222
-0.0497649
-0.0488895
-0.048042
-0.0471418
-0.0461907
-0.045437
-0.0452995
-0.0466021
-0.050542
-0.0585437
-0.0721144
-0.0924759
-0.119924
-0.15306
-0.188018
-0.217933
-0.2327
-0.219939
-0.166759
-0.0634726
0.0922163
0.291064
0.510437
0.716127
0.86931
0.936452
0.899679
0.763218
0.553393
0.311445
0.0818128
-0.100185
-0.216618
-0.268299
-0.270325
-0.244071
-0.20913
-0.178519
-0.157564
-0.146029
-0.141026
-0.139573
-0.139801
-0.140752
-0.142194
-0.143886
-0.145489
-0.146723
-0.147457
-0.1477
-0.147645
-0.147406
-0.147138
-0.146935
-0.1469
-0.147049
-0.147395
-0.147797
-0.147989
-0.14765
-0.146479
-0.144295
-0.141182
-0.13739
-0.133273
-0.129123
-0.125136
-0.121301
-0.117356
-0.113143
-0.108489
-0.103443
-0.0982419
-0.0932068
-0.0887508
-0.085182
-0.0825187
-0.0807522
-0.0796876
-0.0790647
-0.0787046
-0.0785382
-0.0785623
-0.0788382
-0.0792671
-0.0798092
-0.0803297
-0.0807134
-0.0809562
-0.0810579
-0.0810434
-0.0809457
-0.0806798
-0.080004
-0.0788461
-0.077154
-0.0750911
-0.0729621
-0.0712719
-0.0705349
-0.071121
-0.0732375
-0.0767374
-0.0811938
-0.0859068
-0.0902028
-0.093491
-0.095528
-0.0964953
-0.0969805
-0.0978692
-0.0998368
-0.10328
-0.108004
-0.113038
-0.117162
-0.118948
-0.117129
-0.110813
-0.0997764
-0.0842945
-0.0651346
-0.0435038
-0.0208718
0.00129404
0.0216488
0.0392601
0.0537736
0.0652721
0.0743609
0.0818163
0.0884944
0.0950085
0.101699
0.108443
0.114907
0.120569
0.124898
0.12762
0.12878
0.128608
0.127546
0.125954
0.124167
0.122348
0.120699
0.1195
0.118971
0.119256
0.120302
0.121691
0.122819
0.122982
0.121652
0.118633
0.114158
0.108833
0.103419
0.0986459
0.0950214
0.0927879
0.0917926
0.0916956
0.091958
0.0920556
0.0915826
0.0903144
0.0882345
0.0855156
0.0823229
0.0789234
0.0755729
0.0724514
0.0696842
0.0674904
0.0658786
0.0648007
0.0640798
0.0634468
0.0626542
0.0615299
0.0599544
0.0579233
0.055486
0.052738
0.0497201
0.0464984
0.0432435
0.0400535
0.0370384
0.0343914
0.0322536
0.0307196
0.0298692
0.0295973
0.0297681
0.0300443
0.0299897
0.0293881
0.0282874
0.0268903
0.025662
0.0250541
0.0253037
0.0263902
0.0279912
0.0295134
0.0304368
0.0303888
0.0292355
0.0270945
0.0243379
0.0213807
0.018508
0.0159311
0.0137691
0.0120178
0.0107429
0.0100782
0.0102265
0.0114145
0.013691
0.0170078
0.0212117
0.0260801
0.0315365
0.037598
0.0443356
0.0517907
0.0598773
0.0682915
0.0765973
0.0844025
0.0913973
0.0974608
0.10254
0.10659
0.109463
0.110862
0.110551
0.108433
0.104663
0.0997365
0.0944506
0.089808
0.0868143
0.0862457
0.088409
0.0927268
0.0977868
0.101481
0.101692
0.0968174
0.0863266
0.0709801
0.0525583
0.0332483
0.0150625
-0.000672232
-0.0134851
-0.0235932
-0.0314316
-0.0375347
-0.0422208
-0.0455908
-0.047744
-0.0488103
-0.0490041
-0.0487816
-0.0485859
-0.0489043
-0.0499269
-0.0516771
-0.0538376
-0.0559128
-0.0572461
-0.0571665
-0.0554819
-0.0523297
-0.0484438
-0.0451464
-0.0442758
-0.0477984
-0.0576389
-0.0750205
-0.0999697
-0.130798
-0.163899
-0.193898
-0.215033
-0.222327
-0.212701
-0.185053
-0.139037
-0.0729595
0.0168918
0.135247
0.28413
0.457969
0.63962
0.800866
0.908
0.931928
0.859023
0.697521
0.476792
0.239042
0.0265435
-0.130321
-0.219961
-0.2494
-0.237824
-0.207641
-0.17687
-0.155315
-0.144839
-0.142452
-0.143838
-0.145672
-0.146348
-0.145788
-0.144562
-0.14321
-0.14203
-0.141033
-0.140075
-0.139036
-0.137719
-0.136013
-0.133986
-0.13174
-0.129464
-0.127311
-0.125235
-0.123136
-0.120842
-0.118286
-0.115538
-0.112886
-0.110607
-0.108906
-0.10772
-0.106807
-0.105745
-0.104234
-0.102189
-0.0997876
-0.0973727
-0.0952296
-0.0934596
-0.0920464
-0.090772
-0.089379
-0.0878098
-0.0860555
-0.0841661
-0.0822187
-0.0801871
-0.0779731
-0.0755039
-0.0728181
-0.0701978
-0.0680024
-0.0666131
-0.0662403
-0.0667889
-0.0678769
-0.0689725
-0.0695394
-0.0693333
-0.0683795
-0.0670262
-0.0656619
-0.0645948
-0.0638735
-0.0633781
-0.062761
-0.061861
-0.0606653
-0.0594309
-0.0586272
-0.0587194
-0.0601052
-0.0627287
-0.0663041
-0.0702166
-0.0738841
-0.0768629
-0.0789717
-0.0803267
-0.0810549
-0.0811887
-0.0804888
-0.0784068
-0.074298
-0.0675514
-0.0579367
-0.0455903
-0.0312083
-0.0156329
0.000152503
0.0153822
0.0295155
0.0422962
0.0535885
0.0633951
0.0716031
0.0781488
0.0830725
0.0865032
0.0888241
0.0904708
0.0919283
0.0935164
0.0952308
0.0969657
0.0983937
0.0992558
0.0993797
0.098839
0.097875
0.0967635
0.095747
0.0948618
0.0941755
0.0935554
0.0929911
0.0925173
0.0921731
0.0919881
0.091875
0.0915761
0.0907783
0.0891071
0.086406
0.082675
0.0781889
0.073406
0.0688006
0.0647729
0.0615987
0.0592378
0.0574621
0.0558968
0.0542362
0.0522231
0.0497863
0.0469943
0.0440923
0.0413967
0.0392613
0.0379678
0.0376897
0.0383945
0.0398202
0.0415599
0.0431369
0.0440856
0.0440706
0.0430564
0.0411011
0.0384582
0.0354677
0.0323759
0.0293103
0.0262011
0.0229704
0.0194665
0.0156834
0.0117789
0.00798928
0.00459708
0.00178012
-0.000439037
-0.00221014
-0.00374492
-0.00527302
-0.00682395
-0.00839775
-0.00983368
-0.0109017
-0.0113894
-0.0112209
-0.0104202
-0.00914237
-0.00770524
-0.00636769
-0.00525997
-0.00448132
-0.00396602
-0.00363343
-0.00331454
-0.00298872
-0.00257461
-0.00193608
-0.000888067
0.000830823
0.003445
0.00713841
0.0118464
0.0173266
0.023194
0.0290132
0.0342919
0.0388095
0.0424431
0.0453827
0.0480129
0.0509108
0.0547223
0.0598999
0.0666378
0.0746581
0.0832198
0.0912717
0.097735
0.101791
0.103094
0.10178
0.0984031
0.0937847
0.0888954
0.0846933
0.0820547
0.0817091
0.0838188
0.0877719
0.0920951
0.0946557
0.0933411
0.0866249
0.0742739
0.0573738
0.038052
0.0187916
0.00164425
-0.012114
-0.0223319
-0.0295101
-0.0345524
-0.0384052
-0.0417754
-0.0450917
-0.0486598
-0.0524428
-0.0562346
-0.0597509
-0.0627148
-0.0649491
-0.0663219
-0.0669866
-0.0670546
-0.0666774
-0.0660048
-0.0651453
-0.0642236
-0.0632029
-0.0619133
-0.0601235
-0.0576852
-0.0547136
-0.0518825
-0.0505307
-0.0524307
-0.0595891
-0.0736148
-0.0952101
-0.123966
-0.157777
-0.192556
-0.222226
-0.238713
-0.23221
-0.192145
-0.109444
0.0202799
0.193045
0.393681
0.595585
0.764647
0.866815
0.877917
0.791682
0.623196
0.405481
0.180321
-0.0137356
-0.151368
-0.225339
-0.244762
-0.228626
-0.197684
-0.167956
-0.147609
-0.137839
-0.13578
-0.13749
-0.139941
-0.14154
-0.141955
-0.141216
-0.139335
-0.136265
-0.132042
-0.126943
-0.121518
-0.11648
-0.112458
-0.109755
-0.108328
-0.107849
-0.107836
-0.107811
-0.107466
-0.106714
-0.105577
-0.104096
-0.102344
-0.10034
-0.0980975
-0.0957753
-0.0934359
-0.0912567
-0.0893008
-0.0874814
-0.0856229
-0.0834197
-0.0807557
-0.0776622
-0.0743335
-0.070996
-0.0679115
-0.0652203
-0.0629498
-0.0611101
-0.0597514
-0.0589032
-0.0585783
-0.0587505
-0.0592531
-0.0598097
-0.0601722
-0.0602285
-0.0601107
-0.0600659
-0.0604742
-0.0614562
-0.062928
-0.0644517
-0.0654413
-0.0653899
-0.0639869
-0.0614101
-0.0581765
-0.0549027
-0.0521956
-0.0503896
-0.04957
-0.0494531
-0.0496914
-0.0499409
-0.0500167
-0.0499655
-0.0500792
-0.0506581
-0.0520217
-0.0542893
-0.0573256
-0.0608328
-0.0642304
-0.0669299
-0.0682863
-0.0677482
-0.0649557
-0.0598196
-0.0524734
-0.0433622
-0.0331623
-0.0225591
-0.0121651
-0.00240104
0.00654782
0.0146707
0.0220901
0.029028
0.0356781
0.0422372
0.0487492
0.0551843
0.0613916
0.06714
0.0721736
0.0763722
0.0796846
0.0822652
0.0842605
0.0858716
0.0873067
0.0886593
0.0899743
0.091225
0.0923653
0.0932594
0.0937753
0.0936935
0.0929326
0.0914289
0.0893406
0.0869247
0.0845487
0.0824663
0.0808349
0.0795908
0.0786342
0.0778301
0.0770849
0.0763928
0.0757436
0.0750505
0.0740359
0.0723803
0.0698231
0.0663537
0.0621719
0.0577135
0.0534194
0.0496807
0.0464757
0.0437174
0.0412054
0.0389978
0.0372761
0.0364258
0.0367828
0.0383301
0.0405716
0.0426583
0.0436624
0.0429594
0.0405214
0.0368597
0.0328365
0.0292738
0.0266012
0.0247123
0.0231033
0.0210489
0.0180399
0.0139327
0.00902023
0.00387752
-0.000855868
-0.00477712
-0.00756507
-0.00923179
-0.00984977
-0.00962339
-0.00873568
-0.00724245
-0.00529013
-0.00300672
-0.000600417
0.00160479
0.00318809
0.00376219
0.00299531
0.000771677
-0.00266143
-0.00679637
-0.0108772
-0.0142951
-0.0167075
-0.0181785
-0.0190082
-0.0196827
-0.0206002
-0.0219282
-0.0236032
-0.0253842
-0.0268839
-0.0276167
-0.0270816
-0.0248556
-0.0205605
-0.0142061
-0.00615335
0.00283471
0.0118158
0.0198569
0.0263362
0.0310781
0.0343853
0.0368196
0.0391132
0.0419093
0.0456074
0.0503991
0.0561158
0.0624156
0.0685797
0.0738539
0.0774392
0.0787301
0.0775137
0.0741541
0.0694447
0.0644006
0.0599747
0.05693
0.0555695
0.0560659
0.058399
0.062528
0.0681542
0.0745747
0.0805887
0.0846312
0.0850639
0.0808311
0.0716301
0.0580129
0.0413011
0.0230573
0.00472959
-0.0125319
-0.027856
-0.0406923
-0.0505621
-0.0571667
-0.0604655
-0.0608224
-0.0590332
-0.0561492
-0.0532611
-0.051408
-0.0511979
-0.0528493
-0.0560893
-0.0603213
-0.0648202
-0.0689081
-0.0720745
-0.0742521
-0.0755816
-0.0763652
-0.076847
-0.0770064
-0.0767722
-0.0761435
-0.0752895
-0.0749374
-0.0762881
-0.0807628
-0.0898656
-0.104591
-0.125311
-0.151458
-0.181197
-0.211261
-0.236755
-0.251147
-0.246452
-0.213803
-0.144807
-0.0339215
0.118847
0.304998
0.505967
0.694437
0.838789
0.910302
0.891379
0.781527
0.598957
0.37643
0.152591
-0.0382301
-0.174293
-0.249998
-0.2738
-0.262904
-0.235903
-0.207322
-0.185111
-0.171138
-0.163625
-0.159688
-0.157058
-0.154783
-0.152766
-0.15112
-0.149807
-0.148575
-0.14715
-0.145414
-0.143602
-0.141955
-0.140761
-0.140127
-0.139951
-0.139961
-0.139975
-0.139884
-0.139695
-0.139392
-0.139062
-0.138578
-0.137903
-0.136981
-0.135819
-0.134449
-0.132835
-0.130828
-0.12824
-0.124943
-0.121006
-0.116694
-0.112458
-0.108743
-0.105899
-0.104051
-0.103093
-0.102893
-0.103228
-0.103904
-0.104727
-0.105561
-0.106146
-0.1063
-0.105876
-0.104768
-0.102993
-0.100677
-0.0980316
-0.0953618
-0.0929417
-0.0910654
-0.0899056
-0.0894525
-0.0894501
-0.0895262
-0.089189
-0.0880324
-0.0859382
-0.0830136
-0.0797317
-0.0767843
-0.0748831
-0.074499
-0.0757744
-0.0785107
-0.0821843
-0.0862034
-0.0902138
-0.0940629
-0.0977759
-0.101505
-0.105178
-0.108493
-0.110863
-0.111469
-0.109717
-0.105249
-0.0981417
-0.0889747
-0.0786504
-0.0681904
-0.0585635
-0.0505942
-0.0446051
-0.0405661
-0.0379577
-0.0360097
-0.0338869
-0.0309769
-0.0269823
-0.0219386
-0.0161591
-0.0100409
-0.00377717
0.00259228
0.00930677
0.0166057
0.0247208
0.0336488
0.0431766
0.0528251
0.0621112
0.0705605
0.0778735
0.0839376
0.088847
0.09282
0.0959449
0.0983783
0.100126
0.101261
0.10178
0.101757
0.101288
0.100497
0.0994338
0.0981501
0.096699
0.0951144
0.0934062
0.0915738
0.0896043
0.0875284
0.0853601
0.0831434
0.0809953
0.0789817
0.077152
0.0754793
0.0739283
0.0725228
0.0712653
0.0701197
0.0690459
0.0679967
0.0669099
0.065629
0.0641804
0.06253
0.060798
0.0590724
0.0575353
0.0561935
0.0549871
0.0538249
0.0525583
0.0511097
0.0493447
0.0472167
0.0446504
0.0416806
0.0382723
0.0344938
0.0304878
0.0265341
0.0229391
0.0200832
0.018123
0.0171384
0.0169208
0.0169707
0.0167063
0.0156596
0.0135212
0.0105359
0.00723139
0.00433988
0.00230623
0.0013915
0.00136669
0.00181315
0.00216979
0.00206363
0.00128004
-0.000201988
-0.00229729
-0.0048737
-0.00770943
-0.0104626
-0.0127259
-0.0140516
-0.0141794
-0.0130873
-0.0109822
-0.00836065
-0.00578666
-0.00372761
-0.00255836
-0.0023448
-0.00289232
-0.00383547
-0.00466052
-0.00480055
-0.00378296
-0.00136691
0.00250471
0.00755133
0.013415
0.01962
0.0257698
0.0316104
0.0369536
0.0416783
0.0458162
0.0494218
0.0526818
0.0558246
0.059213
0.0630663
0.0675829
0.0726941
0.0781523
0.0835237
0.0883749
0.0921789
0.0944947
0.0951932
0.0943197
0.0923019
0.089958
0.0882177
0.0879125
0.0895044
0.0928801
0.0971528
0.100829
0.102153
0.0995947
0.0923122
0.0803281
0.0646516
0.0467255
0.0282796
0.0106815
-0.00506352
-0.0185515
-0.0296743
-0.0383633
-0.0446255
-0.0485164
-0.0503336
-0.0505217
-0.0498818
-0.0490508
-0.0485721
-0.0486354
-0.0491234
-0.0497182
-0.0500563
-0.0499835
-0.0495398
-0.0488986
-0.0483679
-0.0482087
-0.0485641
-0.0494091
-0.0505571
-0.0517339
-0.0527369
-0.0535572
-0.0544865
-0.0562255
-0.0598759
-0.0667997
-0.0783592
-0.0955307
-0.118526
-0.146605
-0.177576
-0.207611
-0.231239
-0.241741
-0.23142
-0.192222
-0.116768
-0.000254642
0.157117
0.347422
0.553295
0.74841
0.901203
0.981835
0.970312
0.863625
0.678131
0.446316
0.208297
0.00115716
-0.150197
-0.237605
-0.268381
-0.259857
-0.232026
-0.20112
-0.176626
-0.161361
-0.153704
-0.150288
-0.148073
-0.145298
-0.141617
-0.13736
-0.133151
-0.129454
-0.126549
-0.124511
-0.123209
-0.122498
-0.122053
-0.121731
-0.121465
-0.121253
-0.12112
-0.121104
-0.121124
-0.121017
-0.120562
-0.119511
-0.117622
-0.114891
-0.111465
-0.107664
-0.103887
-0.100597
-0.098005
-0.0961259
-0.0946938
-0.0932867
-0.0914392
-0.0889622
-0.08593
-0.0827206
-0.0798234
-0.0775779
-0.0762403
-0.075682
-0.0756536
-0.075774
-0.0757744
-0.0755408
-0.0751279
-0.0746895
-0.0743645
-0.07421
-0.0742416
-0.0743571
-0.0744376
-0.074399
-0.0742442
-0.0738577
-0.0733273
-0.0726542
-0.0718076
-0.0708812
-0.0699585
-0.0690787
-0.0682957
-0.0675861
-0.0669285
-0.0662906
-0.0657275
-0.0654204
-0.0655301
-0.066301
-0.0679106
-0.0704776
-0.0740059
-0.0783463
-0.0831311
-0.0878312
-0.0916929
-0.0939585
-0.0939945
-0.0914785
-0.0864012
-0.0791921
-0.0703615
-0.0606288
-0.0506692
-0.0410418
-0.0321553
-0.0243094
-0.0175256
-0.0115395
-0.00577723
0.000476053
0.00791864
0.0169857
0.0275775
0.0391838
0.0509147
0.0618617
0.0713698
0.0791743
0.0853381
0.0903051
0.0945167
0.0983513
0.101935
0.105315
0.108334
0.110819
0.112533
0.113378
0.113282
0.112338
0.110679
0.10856
0.106172
0.103716
0.101352
0.0992189
0.0974927
0.0962763
0.0956996
0.0957699
0.0964178
0.0974526
0.0985422
0.0992621
0.0992987
0.0982602
0.0960474
0.0927005
0.088537
0.0839361
0.0793691
0.0751779
0.0715392
0.0684151
0.0656243
0.0629247
0.0601779
0.0573029
0.0544071
0.0515764
0.0489438
0.0465376
0.0443226
0.0423039
0.0405555
0.0391138
0.0380592
0.0373183
0.0367265
0.0359704
0.0347134
0.0328264
0.0302806
0.0272157
0.0237714
0.0201116
0.0162985
0.0124264
0.00869992
0.00542954
0.00312988
0.00226481
0.003094
0.00556865
0.00916746
0.013175
0.0166587
0.0189366
0.0196159
0.0186719
0.0162525
0.0128846
0.00904078
0.00520497
0.00172666
-0.00101505
-0.00288889
-0.00382178
-0.00389825
-0.00320083
-0.00170924
0.000621141
0.00391865
0.00835894
0.0138913
0.0203999
0.0274948
0.0348537
0.042145
0.049247
0.0562455
0.0632489
0.0704193
0.0776415
0.0845319
0.0904287
0.0946385
0.0964572
0.0955598
0.092172
0.0870007
0.081123
0.075924
0.0725551
0.0719668
0.0744683
0.0796132
0.0862261
0.0924348
0.096153
0.0957345
0.0903799
0.0805133
0.0674985
0.0532883
0.0396768
0.027739
0.01763
0.00857807
-0.000393388
-0.0101028
-0.0206409
-0.0314479
-0.0416002
-0.0502206
-0.056812
-0.0613601
-0.0642208
-0.0660368
-0.0672562
-0.0681082
-0.0685905
-0.0686301
-0.0683213
-0.0678528
-0.0675313
-0.0675581
-0.0679311
-0.068394
-0.0684599
-0.0677127
-0.0659853
-0.0635136
-0.0612033
-0.0605092
-0.0634693
-0.0720855
-0.0879651
-0.111891
-0.143152
-0.178937
-0.21408
-0.241008
-0.250214
-0.230975
-0.172883
-0.0685966
0.0830682
0.273931
0.484672
0.685965
0.843194
0.924494
0.909845
0.79811
0.608798
0.37763
0.14686
-0.0463786
-0.179222
-0.246882
-0.26028
-0.239426
-0.205495
-0.174355
-0.153987
-0.145307
-0.145138
-0.149179
-0.154003
-0.15778
-0.160035
-0.160927
-0.160782
-0.159796
-0.158098
-0.155929
-0.153549
-0.15127
-0.149279
-0.147702
-0.146508
-0.145521
-0.144399
-0.142779
-0.140276
-0.13672
-0.13218
-0.127016
-0.121696
-0.116769
-0.11254
-0.109139
-0.106419
-0.104171
-0.102225
-0.100432
-0.0987982
-0.0973213
-0.0958642
-0.0942195
-0.0923105
-0.0900551
-0.0876015
-0.0852196
-0.083243
-0.0819893
-0.0815138
-0.0816735
-0.0821754
-0.0826342
-0.0826859
-0.0820672
-0.0806991
-0.0785684
-0.0758436
-0.0726407
-0.069169
-0.0656852
-0.0624779
-0.0598373
-0.057945
-0.056923
-0.0566733
-0.0569288
-0.0574047
-0.0578964
-0.0582541
-0.058512
-0.0587414
-0.05897
-0.0591311
-0.0590133
-0.0584833
-0.05754
-0.0564119
-0.0554865
-0.0552525
-0.0560198
-0.0578292
-0.0604866
-0.0634232
-0.0659473
-0.0673461
-0.0669344
-0.0641798
-0.0587888
-0.0508152
-0.0406552
-0.0289987
-0.0166633
-0.00441708
0.00704159
0.0172836
0.0260036
0.0330905
0.0385525
0.0425056
0.0453223
0.0474944
0.0496898
0.0524565
0.0562022
0.0610716
0.0668095
0.072995
0.079162
0.0848108
0.0895456
0.0930825
0.0952239
0.0959074
0.0951333
0.0931336
0.0903268
0.0872795
0.084593
0.0827968
0.0821919
0.0826813
0.0839684
0.0853792
0.0861337
0.0855818
0.0833067
0.079315
0.0739955
0.0680714
0.0623154
0.0573003
0.0533421
0.0504364
0.0483517
0.0467812
0.045413
0.0440274
0.0424882
0.0406975
0.0387566
0.0367919
0.0350121
0.0336603
0.032859
0.0324538
0.0321303
0.0315116
0.030093
0.0276401
0.0241846
0.019995
0.0155706
0.0114271
0.00799625
0.00555419
0.00401193
0.00302725
0.00225539
0.00125405
-0.00021303
-0.00218965
-0.00450339
-0.00692895
-0.0092018
-0.0110372
-0.0122332
-0.0125692
-0.0118747
-0.0100839
-0.00735394
-0.00409731
-0.000965204
0.00130838
0.00218901
0.00148351
-0.000619176
-0.0035469
-0.00673639
-0.00955453
-0.0116526
-0.0130344
-0.0136992
-0.013723
-0.013292
-0.0124359
-0.0113194
-0.0100088
-0.00862207
-0.00704785
-0.00512509
-0.00262844
0.000716117
0.00498054
0.0101956
0.0161545
0.0225698
0.0291715
0.0357302
0.0420282
0.0480559
0.0539259
0.0598494
0.0660313
0.0725411
0.0791253
0.0852192
0.0900893
0.0928953
0.0932333
0.0912901
0.0879121
0.0846053
0.0829455
0.0842136
0.0886242
0.095216
0.101773
0.10569
0.104655
0.0975148
0.0846062
0.0676419
0.0489207
0.0305341
0.0138539
-0.000778871
-0.0136126
-0.0249603
-0.034843
-0.0427537
-0.0482254
-0.0510918
-0.0517588
-0.0511008
-0.0501588
-0.0496439
-0.0498117
-0.0503892
-0.0508616
-0.0509906
-0.0508408
-0.05089
-0.0515767
-0.0532775
-0.0559196
-0.0591182
-0.0622045
-0.064714
-0.0667611
-0.0693082
-0.0741894
-0.0835164
-0.0993669
-0.122874
-0.153395
-0.187695
-0.219658
-0.240522
-0.239629
-0.205564
-0.128386
-0.00275406
0.168942
0.373801
0.587952
0.779135
0.912721
0.960251
0.907864
0.761448
0.546431
0.301591
0.0688023
-0.117756
-0.239345
-0.294794
-0.297226
-0.267335
-0.225743
-0.187585
-0.160264
-0.144814
-0.13844
-0.137245
-0.137903
-0.138521
-0.13842
-0.137592
-0.136254
-0.134636
-0.133093
-0.131967
-0.131544
-0.131808
-0.132475
-0.133033
-0.132937
-0.131723
-0.129262
-0.125762
-0.121607
-0.117258
-0.113
-0.10906
-0.105459
-0.102107
-0.0989536
-0.0959935
-0.0932137
-0.0906279
-0.0881933
-0.0858075
-0.0833384
-0.0807328
-0.0780045
-0.0753694
-0.0730213
-0.0712155
-0.0700407
-0.0694216
-0.0690821
-0.0687515
-0.0681124
-0.0670356
-0.0655579
-0.0637605
-0.0618252
-0.0599366
-0.05827
-0.0569888
-0.0561713
-0.0557587
-0.0555525
-0.0551836
-0.0543541
-0.0528442
-0.0507459
-0.0483131
-0.0459711
-0.0440992
-0.0429037
-0.0423972
-0.0424963
-0.0431276
-0.0442777
-0.046055
-0.0485346
-0.0516496
-0.0551703
-0.0587661
-0.0620355
-0.064773
-0.0669327
-0.0684973
-0.0695502
-0.069892
-0.0692082
-0.0670239
-0.062951
-0.056861
-0.0488692
-0.039323
-0.0286379
-0.0171541
-0.00514484
0.00720299
0.0196519
0.0318716
0.0434534
0.0540847
0.063488
0.0716483
0.0786619
0.0847575
0.0900329
0.094555
0.0981282
0.100504
0.101486
0.101022
0.0993911
0.0971004
0.0948432
0.0932465
0.0926188
0.0929084
0.0935462
0.093749
0.0929076
0.0906862
0.0873799
0.0836703
0.0803132
0.0778909
0.0764774
0.0757384
0.0751048
0.0740474
0.0723952
0.0702569
0.0680276
0.0659715
0.0642126
0.0626557
0.0610887
0.059308
0.0572863
0.0551086
0.0529868
0.0510051
0.0491785
0.0472906
0.0450801
0.0422751
0.0387747
0.0348399
0.0308196
0.0271263
0.0240237
0.0215209
0.0193918
0.0172537
0.0148902
0.0124536
0.0102969
0.00891176
0.00857917
0.00917332
0.0101469
0.0106349
0.00995075
0.00780237
0.00444286
0.000670398
-0.00265913
-0.00486079
-0.00580421
-0.00590691
-0.00591347
-0.006452
-0.00778628
-0.00979514
-0.0119382
-0.0136288
-0.014477
-0.0144226
-0.0137068
-0.0126867
-0.0115821
-0.0104806
-0.00923613
-0.00760772
-0.00545306
-0.00285742
-0.000162139
0.00215305
0.00347313
0.00336677
0.00172072
-0.00121581
-0.00479196
-0.0081571
-0.0103702
-0.0107417
-0.00890931
-0.00496365
0.000586867
0.00710132
0.0138641
0.0203796
0.0264262
0.0319334
0.0370966
0.0420915
0.047108
0.0523333
0.0579303
0.0639632
0.0703962
0.0769596
0.0830927
0.087955
0.0907198
0.0908689
0.0885254
0.0844069
0.0798778
0.0765372
0.0755944
0.0773634
0.0810861
0.0850356
0.0870658
0.0853815
0.0789133
0.0676594
0.0524727
0.0347862
0.0162239
-0.00172192
-0.0177575
-0.0309599
-0.0407467
-0.0470454
-0.0503828
-0.0516869
-0.0521946
-0.0529595
-0.0545542
-0.0570149
-0.060004
-0.0629703
-0.0654423
-0.0672233
-0.0683231
-0.0687556
-0.0685221
-0.0675032
-0.0655748
-0.062876
-0.0597478
-0.056904
-0.055098
-0.0550071
-0.0573695
-0.0627379
-0.0716975
-0.0849413
-0.103236
-0.12699
-0.155625
-0.18675
-0.2155
-0.234334
-0.233288
-0.201019
-0.127137
-0.005458
0.162246
0.363261
0.573222
0.759046
0.885734
0.925528
0.866563
0.717442
0.50608
0.27228
0.0565989
-0.110211
-0.213916
-0.257348
-0.255802
-0.229559
-0.196892
-0.169696
-0.152588
-0.144898
-0.14332
-0.144359
-0.145569
-0.145977
-0.145576
-0.144779
-0.144117
-0.143842
-0.144057
-0.144546
-0.144956
-0.144896
-0.144234
-0.142874
-0.141034
-0.139032
-0.137154
-0.135673
-0.134627
-0.133857
-0.133091
-0.132024
-0.130349
-0.128011
-0.12509
-0.121806
-0.118396
-0.115053
-0.111898
-0.108958
-0.106304
-0.104025
-0.102227
-0.101184
-0.10089
-0.101273
-0.102059
-0.102855
-0.103315
-0.103227
-0.102496
-0.101038
-0.0988361
-0.0958499
-0.0920413
-0.0875294
-0.082607
-0.0777061
-0.0735254
-0.0705313
-0.0689195
-0.0685232
-0.0688882
-0.0695098
-0.0700278
-0.0703369
-0.0705799
-0.0710668
-0.0720178
-0.0733207
-0.0746857
-0.0757363
-0.0761801
-0.0761582
-0.0760811
-0.0765937
-0.0783183
-0.0815441
-0.0860955
-0.0914318
-0.0968201
-0.101601
-0.105368
-0.108041
-0.109697
-0.110413
-0.110155
-0.108617
-0.105422
-0.10009
-0.0923836
-0.0823837
-0.0705022
-0.057447
-0.0439662
-0.0306445
-0.0179059
-0.00580662
0.00574117
0.0168798
0.0276704
0.0380615
0.0478996
0.056972
0.0651816
0.072468
0.0788513
0.0844771
0.0894675
0.0938456
0.0976283
0.100791
0.10332
0.105234
0.106628
0.107562
0.10809
0.108179
0.107738
0.106793
0.105485
0.103991
0.102637
0.101611
0.100897
0.100285
0.0993834
0.0978027
0.0954171
0.0923094
0.0888704
0.0855797
0.0829511
0.0811954
0.0803024
0.0799943
0.0799596
0.0797811
0.0791655
0.0778716
0.075812
0.0728771
0.0689899
0.0642597
0.0589717
0.053546
0.0484876
0.044298
0.0412677
0.0393928
0.0384577
0.037991
0.0375047
0.0366579
0.0352467
0.0334123
0.0313742
0.0294138
0.0276595
0.0261086
0.0245366
0.0227806
0.0206155
0.0180178
0.0151226
0.0121665
0.00940849
0.00706533
0.00532284
0.00415176
0.00343196
0.00292386
0.00237496
0.00163454
0.000723292
-0.000192257
-0.000831148
-0.00093031
-0.000353365
0.000778698
0.00215435
0.00344197
0.00431019
0.00461641
0.00434877
0.00364134
0.00268539
0.00157066
0.000352564
-0.00095348
-0.00231857
-0.00348284
-0.00407545
-0.0036488
-0.00174675
0.00191539
0.00723653
0.0139342
0.0214937
0.029244
0.0365659
0.043016
0.0483701
0.0526562
0.0561824
0.0593423
0.0627483
0.0667692
0.0715989
0.0770756
0.0827069
0.0877245
0.091341
0.0929196
0.0921508
0.0893379
0.0852444
0.0810261
0.0778889
0.0769298
0.0786508
0.082762
0.0881913
0.0931205
0.0955327
0.0937357
0.0868396
0.0750649
0.059593
0.0421694
0.0246355
0.00843146
-0.00574935
-0.0177846
-0.0278595
-0.0362843
-0.043213
-0.0486787
-0.0527925
-0.0557269
-0.0576728
-0.0589578
-0.0597614
-0.0601199
-0.0600027
-0.0593415
-0.0581744
-0.0566912
-0.0550849
-0.0534741
-0.0519247
-0.0504653
-0.0492022
-0.0485222
-0.0491686
-0.0521356
-0.058517
-0.0691366
-0.0844803
-0.104729
-0.129815
-0.159268
-0.192051
-0.226017
-0.257317
-0.280046
-0.286087
-0.265233
-0.206634
-0.101714
0.0524023
0.248695
0.467864
0.679246
0.846008
0.934218
0.92299
0.81186
0.622238
0.391822
0.163922
-0.0247094
-0.152743
-0.21735
-0.23088
-0.213431
-0.184979
-0.159561
-0.14356
-0.137019
-0.136705
-0.138912
-0.140947
-0.141731
-0.141275
-0.139945
-0.138058
-0.135803
-0.133417
-0.131066
-0.128923
-0.12708
-0.12544
-0.123728
-0.121609
-0.118837
-0.115441
-0.111687
-0.108081
-0.105181
-0.103482
-0.103236
-0.104205
-0.1059
-0.107425
-0.107877
-0.106558
-0.103142
-0.0978813
-0.0915298
-0.0851101
-0.0795609
-0.0756024
-0.0734743
-0.0728821
-0.0732457
-0.0739053
-0.0743002
-0.0740773
-0.0731739
-0.0718124
-0.0702086
-0.0687068
-0.0675353
-0.066832
-0.0665409
-0.0665215
-0.0665669
-0.0665304
-0.0663623
-0.0661407
-0.0659771
-0.0660509
-0.0664808
-0.0672693
-0.0683125
-0.0694494
-0.0704607
-0.0711669
-0.0714828
-0.0715052
-0.0714684
-0.0717219
-0.0725927
-0.074373
-0.0770314
-0.0803051
-0.0838163
-0.087152
-0.0900375
-0.0923468
-0.0942973
-0.0961081
-0.0979571
-0.0997714
-0.10104
-0.100914
-0.0984254
-0.0926553
-0.0830539
-0.0697405
-0.0533044
-0.0348979
-0.0159175
0.00227158
0.0186217
0.0326846
0.0444375
0.0543406
0.063072
0.0712044
0.0789625
0.086144
0.0922506
0.0966867
0.0990846
0.0995375
0.0986987
0.097392
0.0965329
0.0966875
0.0979266
0.0998636
0.101875
0.103357
0.10395
0.103675
0.102807
0.101669
0.100592
0.0996418
0.098733
0.0975785
0.0959979
0.0938759
0.0912192
0.0882605
0.085273
0.0824967
0.0800051
0.0777344
0.0755376
0.0731746
0.0704829
0.067524
0.0644576
0.0614818
0.0588577
0.0567817
0.0553598
0.0546727
0.0546634
0.0552281
0.0560144
0.0565945
0.0564502
0.055177
0.0526099
0.0489895
0.0447195
0.0404144
0.0366091
0.0335168
0.0310837
0.0291296
0.0273745
0.0256907
0.0240912
0.0227635
0.0217842
0.0210778
0.0203588
0.0192196
0.0173482
0.0145893
0.0112475
0.00780386
0.00485888
0.00290353
0.00211351
0.00237327
0.00314618
0.00393202
0.00424527
0.00388114
0.00297282
0.0017908
0.000711909
7.54896e-5
-3.06718e-5
0.000354964
0.00117351
0.00236043
0.00395608
0.00601598
0.00865063
0.0118712
0.0156164
0.0198722
0.0246355
0.0300428
0.0361566
0.0431196
0.0509431
0.0594798
0.0683729
0.0770368
0.0847716
0.0907886
0.0945903
0.0958243
0.0945956
0.0914975
0.0874689
0.0835904
0.0810175
0.0806881
0.0829663
0.0875413
0.0931886
0.0979868
0.0997458
0.0967159
0.0881327
0.0745183
0.0575159
0.0392419
0.0217621
0.00641047
-0.00627365
-0.0164738
-0.0246501
-0.0313353
-0.0367581
-0.0409748
-0.0441152
-0.0463328
-0.0478205
-0.048838
-0.0496554
-0.0504341
-0.051276
-0.0523175
-0.0535655
-0.0550112
-0.0565834
-0.0581058
-0.059371
-0.06016
-0.0603313
-0.0598684
-0.0589954
-0.0580431
-0.0577857
-0.0593246
-0.0640799
-0.0736847
-0.0897082
-0.11298
-0.143186
-0.178244
-0.214057
-0.244726
-0.263137
-0.26197
-0.234037
-0.172752
-0.072944
0.0674082
0.244887
0.447907
0.65529
0.8374
0.961443
0.999768
0.938775
0.785016
0.565068
0.318926
0.0890855
-0.0910269
-0.204788
-0.253872
-0.253934
-0.226743
-0.192279
-0.163688
-0.146164
-0.138875
-0.138244
-0.140389
-0.142635
-0.143867
-0.143974
-0.14326
-0.142118
-0.140912
-0.139943
-0.139318
-0.138942
-0.138637
-0.13806
-0.136989
-0.135352
-0.133188
-0.130636
-0.127773
-0.124713
-0.121593
-0.11855
-0.115794
-0.113476
-0.111638
-0.110204
-0.108897
-0.10754
-0.10595
-0.104144
-0.102158
-0.100197
-0.0982664
-0.0963516
-0.0944218
-0.0923493
-0.0901411
-0.0880131
-0.0862197
-0.0850616
-0.0848238
-0.0855048
-0.086869
-0.0883954
-0.0894591
-0.0895239
-0.0883437
-0.0860276
-0.0829356
-0.0796263
-0.076626
-0.0742196
-0.0724141
-0.0709835
-0.0695734
-0.0679257
-0.065939
-0.0637185
-0.0616273
-0.0601367
-0.0594668
-0.0597591
-0.0609017
-0.0625256
-0.0642896
-0.0659706
-0.0674765
-0.0689591
-0.0705752
-0.0724796
-0.0747377
-0.0772072
-0.0796221
-0.0816894
-0.0831635
-0.0837036
-0.082928
-0.0802924
-0.0753108
-0.0674786
-0.0566669
-0.0431313
-0.0276445
-0.0113577
0.00444707
0.0187181
0.0307691
0.0404578
0.0480314
0.0540446
0.0590849
0.0636209
0.0678546
0.0718556
0.0753839
0.0782925
0.0804136
0.0817086
0.0822782
0.0823581
0.0822877
0.0824198
0.0830339
0.0841518
0.085693
0.0873073
0.0886083
0.0892916
0.0892129
0.0884477
0.0872374
0.0858679
0.0845445
0.0832971
0.0820811
0.0807043
0.0789633
0.0766322
0.0736883
0.0701315
0.0662156
0.0621462
0.0582376
0.0546585
0.0513729
0.0482434
0.0450476
0.0416019
0.0379275
0.0341827
0.0306305
0.0276003
0.025249
0.0236069
0.0225456
0.0217911
0.0211072
0.0203284
0.0194221
0.01846
0.0175743
0.0168068
0.0160021
0.014991
0.0135312
0.0114926
0.00888089
0.005878
0.00271353
-0.000428962
-0.00344308
-0.00636868
-0.00915491
-0.0117026
-0.0138759
-0.0154212
-0.0162824
-0.0165645
-0.0164532
-0.0162586
-0.0161751
-0.016173
-0.0162238
-0.0161192
-0.0158189
-0.0153449
-0.014838
-0.0144976
-0.014498
-0.014979
-0.0160325
-0.0177253
-0.0199353
-0.0224294
-0.0247827
-0.0265091
-0.027168
-0.0264017
-0.0241725
-0.0205441
-0.0157862
-0.0102688
-0.00422046
0.0021178
0.00851838
0.0148052
0.0208789
0.0266147
0.0320538
0.0371874
0.0421785
0.047111
0.0521229
0.0572513
0.0624813
0.0677799
0.0729526
0.0778225
0.0821021
0.08544
0.0874304
0.0877092
0.0861232
0.0828931
0.078708
0.074571
0.0715889
0.0707326
0.0722134
0.075479
0.0791595
0.081536
0.0809283
0.0763657
0.0677387
0.0558161
0.0418071
0.0270408
0.0124996
-0.00126751
-0.0139733
-0.0255067
-0.0355322
-0.043705
-0.0497294
-0.0535156
-0.0554651
-0.0561651
-0.0564243
-0.0568559
-0.0577835
-0.0592523
-0.061146
-0.0632572
-0.0654415
-0.0676181
-0.0697509
-0.0718167
-0.073643
-0.0751126
-0.0759555
-0.0759062
-0.0748689
-0.0728802
-0.0703632
-0.0679199
-0.0665609
-0.0676118
-0.0726072
-0.0829562
-0.0996755
-0.122881
-0.15165
-0.183531
-0.21419
-0.237708
-0.246739
-0.232836
-0.187071
-0.101884
0.0265803
0.195234
0.391503
0.592554
0.767565
0.88406
0.916234
0.85301
0.702854
0.49266
0.261017
0.0473349
-0.1183
-0.221746
-0.265546
-0.264658
-0.239012
-0.20669
-0.179326
-0.161255
-0.151648
-0.147336
-0.145161
-0.143379
-0.14161
-0.140329
-0.140052
-0.140868
-0.142463
-0.1443
-0.145645
-0.146044
-0.145299
-0.143508
-0.140985
-0.13809
-0.135278
-0.132804
-0.130809
-0.129215
-0.127877
-0.126447
-0.124631
-0.122205
-0.118962
-0.114965
-0.110404
-0.10566
-0.101195
-0.0973523
-0.094391
-0.0922835
-0.0908384
-0.0897948
-0.0889335
-0.0880921
-0.0873141
-0.0866187
-0.0860497
-0.0855789
-0.0850425
-0.0843005
-0.083231
-0.0818502
-0.0802856
-0.0787074
-0.077365
-0.0764007
-0.0759105
-0.0758465
-0.0759943
-0.0762182
-0.0764305
-0.0764976
-0.0763557
-0.0759858
-0.0752733
-0.0741482
-0.0726061
-0.0707242
-0.0687335
-0.0669414
-0.0656926
-0.0652158
-0.0655714
-0.0666707
-0.0682639
-0.0700723
-0.0718813
-0.073596
-0.0751827
-0.0766975
-0.0781646
-0.079487
-0.0803804
-0.0805366
-0.0796061
-0.0772481
-0.073217
-0.0674864
-0.0602057
-0.0516753
-0.0423976
-0.0329706
-0.0239495
-0.0157924
-0.00866789
-0.00251726
0.00295283
0.00810411
0.0131432
0.0183028
0.0236084
0.0289942
0.0345147
0.0401427
0.0459372
0.0518728
0.0579052
0.0638294
0.069339
0.0742033
0.0782326
0.0814664
0.084001
0.0860259
0.0876919
0.0890346
0.0899283
0.090218
0.0898279
0.0887192
0.087051
0.0850334
0.0828252
0.0806093
0.0784707
0.0763879
0.0743415
0.0723167
0.070207
0.0680693
0.0658541
0.0635464
0.0611695
0.0586437
0.0559525
0.0530644
0.0500855
0.0470949
0.0443562
0.0420534
0.040264
0.0389382
0.0378771
0.0368229
0.0355628
0.0340945
0.0324429
0.0307866
0.0293615
0.0281214
0.0269439
0.0255789
0.0236333
0.0208504
0.0171523
0.0126244
0.00766642
0.00268946
-0.00186516
-0.00563238
-0.00841466
-0.0101565
-0.0110296
-0.0112294
-0.0110319
-0.010709
-0.0103899
-0.0101929
-0.0101676
-0.0102838
-0.0105268
-0.0108903
-0.0113007
-0.0118057
-0.0124574
-0.0132572
-0.0142106
-0.0153525
-0.0166283
-0.0179533
-0.0192013
-0.0202744
-0.0210999
-0.0216332
-0.0218324
-0.0216967
-0.021208
-0.0204145
-0.0192875
-0.0179199
-0.0164336
-0.0148083
-0.0130607
-0.0109881
-0.00845633
-0.00519679
-0.00100086
0.00419001
0.0101724
0.0166124
0.0230579
0.0290261
0.0341852
0.0384274
0.0419948
0.0451635
0.0482488
0.0515998
0.0552994
0.0594326
0.0639601
0.0687719
0.0736495
0.078315
0.0821905
0.0847308
0.0854465
0.0841918
0.0812738
0.077522
0.0741903
0.0724693
0.0732213
0.0767594
0.0826377
0.0896079
0.0958271
0.0992475
0.0981333
0.0916269
0.0797621
0.063735
0.0453178
0.0263897
0.00844617
-0.00762095
-0.0216691
-0.033768
-0.0440224
-0.0523771
-0.0585827
-0.0625391
-0.0643823
-0.064583
-0.0636813
-0.0622848
-0.0608329
-0.0594919
-0.0582574
-0.0570716
-0.055912
-0.0548119
-0.0540104
-0.0538513
-0.054655
-0.0566542
-0.0597787
-0.0636244
-0.0674736
-0.0705449
-0.0723294
-0.0728109
-0.0727198
-0.0735392
-0.0772391
-0.0857579
-0.100596
-0.122328
-0.150131
-0.181407
-0.21149
-0.233892
-0.240438
-0.221985
-0.169398
-0.0757891
0.0609715
0.23532
0.432155
0.626904
0.788861
0.887431
0.90036
0.820811
0.660826
0.449161
0.22398
0.022328
-0.129122
-0.219638
-0.254209
-0.248713
-0.222747
-0.193047
-0.169768
-0.156112
-0.150627
-0.149764
-0.150221
-0.149985
-0.148454
-0.145804
-0.14249
-0.138917
-0.135446
-0.132263
-0.129558
-0.127456
-0.125976
-0.125094
-0.124644
-0.124352
-0.123931
-0.123092
-0.121699
-0.119744
-0.117388
-0.114929
-0.112667
-0.110773
-0.109325
-0.108224
-0.107189
-0.105954
-0.104227
-0.101797
-0.0986982
-0.095116
-0.0914344
-0.0881946
-0.0857975
-0.0845445
-0.0845093
-0.085435
-0.0869242
-0.0885344
-0.0899179
-0.0908458
-0.0912739
-0.0912586
-0.0909269
-0.0903797
-0.0896659
-0.0887452
-0.0874891
-0.0858479
-0.0837317
-0.0811725
-0.0782781
-0.0751736
-0.0720727
-0.0691716
-0.0666314
-0.0646372
-0.063395
-0.0630263
-0.0636694
-0.0652509
-0.067469
-0.0699666
-0.0722474
-0.0740096
-0.0750471
-0.0754851
-0.0755998
-0.0757908
-0.076433
-0.0778297
-0.0801218
-0.0831574
-0.086565
-0.0896417
-0.0915868
-0.0914972
-0.0886434
-0.082621
-0.0735706
-0.062268
-0.0499347
-0.0381833
-0.02847
-0.0216595
-0.0177409
-0.0158639
-0.0145242
-0.0120508
-0.00729851
0.000237937
0.010161
0.0214545
0.0329159
0.0433899
0.0521611
0.058996
0.0641746
0.0682079
0.0718139
0.075577
0.0799369
0.0849693
0.0903635
0.0955562
0.0999692
0.103133
0.104796
0.105102
0.104371
0.102989
0.101176
0.0990818
0.0966574
0.0937874
0.0904388
0.0866223
0.0824252
0.0779994
0.0734389
0.0690089
0.0649963
0.0617247
0.0595257
0.0586091
0.058988
0.0603838
0.0622999
0.0640944
0.0651836
0.0650971
0.0636685
0.0610397
0.0575443
0.0537599
0.0501667
0.0470186
0.0444337
0.042235
0.0401666
0.0380235
0.0356363
0.0330166
0.0301877
0.0272214
0.0242977
0.0216141
0.0193916
0.0179005
0.0171824
0.0171434
0.0173534
0.0173281
0.0166084
0.0150273
0.0127346
0.0101782
0.00780082
0.00595658
0.00472081
0.0038355
0.00298067
0.00191876
0.000632597
-0.000740876
-0.00199632
-0.00304019
-0.00381697
-0.00441765
-0.00492948
-0.00524882
-0.0053609
-0.0051993
-0.00487485
-0.00461744
-0.00477943
-0.00567927
-0.00734887
-0.00957272
-0.0118328
-0.0135687
-0.0143073
-0.013796
-0.0120302
-0.00921151
-0.00562001
-0.00153668
0.00284179
0.00741813
0.0120428
0.0165721
0.0208686
0.024859
0.0286066
0.0323537
0.0365971
0.0416846
0.0478703
0.0550341
0.0625809
0.069534
0.0748785
0.0778342
0.0781339
0.0762197
0.0730506
0.0699236
0.0680626
0.0682898
0.0709385
0.0757226
0.0818886
0.0882648
0.0934707
0.096074
0.0949411
0.0895213
0.0800389
0.0674165
0.0531211
0.0386141
0.0250366
0.0130245
0.0026294
-0.00653083
-0.0148271
-0.0225777
-0.0298375
-0.0365228
-0.0425307
-0.0477514
-0.0522329
-0.0560766
-0.0594853
-0.0625574
-0.0653699
-0.067898
-0.0700825
-0.0718429
-0.0732322
-0.0743629
-0.0753769
-0.0764353
-0.0775194
-0.07845
-0.0789632
-0.07863
-0.0772191
-0.0747683
-0.0716598
-0.0685749
-0.0664839
-0.066572
-0.0701392
-0.078486
-0.0926715
-0.113464
-0.14065
-0.172584
-0.205483
-0.233387
-0.248298
-0.240911
-0.201508
-0.121857
0.00264946
0.170185
0.370154
0.582209
0.777535
0.92365
0.991768
0.964819
0.843453
0.647417
0.411176
0.175013
-0.0255642
-0.168055
-0.246629
-0.270279
-0.25698
-0.226466
-0.194453
-0.169945
-0.155556
-0.149809
-0.149539
-0.151642
-0.154144
-0.155987
-0.156721
-0.156124
-0.154158
-0.151003
-0.147075
-0.14278
-0.138582
-0.13483
-0.131679
-0.129131
-0.12705
-0.125293
-0.123689
-0.122038
-0.120147
-0.117807
-0.114899
-0.111423
-0.107526
-0.103573
-0.100048
-0.0972946
-0.0954711
-0.0944813
-0.0940088
-0.093665
-0.0931806
-0.0925378
-0.0918277
-0.091324
-0.0911681
-0.0914184
-0.0918887
-0.0922623
-0.0922285
-0.0915751
-0.0901801
-0.0881009
-0.0855154
-0.0827127
-0.0799532
-0.0775165
-0.0755309
-0.0740965
-0.0731719
-0.0726118
-0.0721484
-0.0715343
-0.0705946
-0.0692855
-0.0676797
-0.0660293
-0.0645932
-0.0634949
-0.0628639
-0.0626186
-0.0626845
-0.0628695
-0.0630987
-0.0633985
-0.0639266
-0.0648489
-0.0663859
-0.0686162
-0.0715604
-0.0750169
-0.0787922
-0.0826361
-0.0864043
-0.089883
-0.0928346
-0.0948684
-0.0954138
-0.0938745
-0.0897461
-0.0829284
-0.073848
-0.0632799
-0.0522842
-0.0417674
-0.0323095
-0.0239323
-0.0162366
-0.00853894
-0.00022852
0.00901422
0.0192821
0.0303511
0.0419471
0.0536085
0.0650387
0.0757483
0.0852958
0.0933375
0.0996301
0.104218
0.107372
0.109651
0.111535
0.113444
0.115517
0.117692
0.119775
0.121482
0.12267
0.123223
0.123191
0.12266
0.121896
0.12109
0.120444
0.120139
0.120199
0.120478
0.120778
0.120874
0.120527
0.119703
0.118398
0.116629
0.114452
0.111885
0.10897
0.105794
0.102546
0.0994594
0.0967148
0.0943415
0.0923143
0.0904573
0.0885581
0.0864625
0.0840988
0.081418
0.0784419
0.0752506
0.0719728
0.0687839
0.0658186
0.0631646
0.0607377
0.0584722
0.056229
0.0538369
0.051292
0.048634
0.0458535
0.0429406
0.0398105
0.0363909
0.0327373
0.0289249
0.025151
0.0217248
0.0188215
0.0165535
0.014937
0.0139253
0.0133785
0.0131624
0.0131012
0.01306
0.0129075
0.0125233
0.011885
0.0110921
0.0103985
0.0099425
0.00989911
0.0102798
0.0109419
0.0116434
0.0119884
0.0115815
0.0102014
0.00778499
0.00445767
0.000644366
-0.00303446
-0.00591072
-0.00738805
-0.00700096
-0.00458974
-0.000367773
0.00527878
0.011742
0.0184541
0.0248732
0.030709
0.0359295
0.0406968
0.0454361
0.0505299
0.0564149
0.0632133
0.0709347
0.0792504
0.0874803
0.0948405
0.100444
0.103533
0.103738
0.101207
0.0966717
0.0913571
0.0867678
0.0843876
0.0852444
0.0895191
0.096311
0.103581
0.108779
0.109362
0.103752
0.091794
0.0747471
0.0550337
0.0352626
0.0175813
0.00304378
-0.00819025
-0.0167853
-0.0236063
-0.0292908
-0.0341793
-0.0383234
-0.041649
-0.0441859
-0.0460417
-0.0474459
-0.048591
-0.0495343
-0.0502152
-0.050411
-0.0499999
-0.0489229
-0.0474447
-0.045956
-0.0448448
-0.0443546
-0.0444899
-0.0449666
-0.0455409
-0.0460774
-0.0468961
-0.0488179
-0.0533201
-0.0620207
-0.0763673
-0.0972052
-0.124341
-0.156086
-0.188911
-0.217204
-0.233653
-0.229394
-0.194832
-0.121116
-0.00245989
0.160619
0.358588
0.571205
0.768986
0.917883
0.987415
0.959307
0.834183
0.633065
0.392597
0.155061
-0.0429008
-0.179154
-0.249597
-0.265468
-0.246723
-0.21408
-0.182957
-0.16102
-0.149296
-0.145049
-0.14455
-0.145016
-0.145089
-0.144541
-0.143667
-0.142612
-0.141391
-0.139871
-0.13785
-0.135203
-0.132067
-0.128657
-0.125295
-0.122373
-0.12024
-0.119014
-0.118644
-0.11886
-0.119277
-0.11955
-0.119322
-0.118367
-0.116629
-0.114179
-0.11117
-0.107896
-0.104706
-0.101858
-0.099555
-0.0978321
-0.096528
-0.0954331
-0.0943407
-0.0930358
-0.0914737
-0.0896637
-0.0876266
-0.0854176
-0.0831354
-0.0808819
-0.0788085
-0.0770221
-0.0755618
-0.0744975
-0.0737044
-0.073021
-0.07233
-0.0715259
-0.070547
-0.0694435
-0.0682814
-0.0671174
-0.0660069
-0.0649813
-0.0640622
-0.0632041
-0.0623821
-0.061565
-0.0607859
-0.0600649
-0.0594317
-0.0589018
-0.0585632
-0.0585032
-0.0588822
-0.0598557
-0.0613962
-0.0633199
-0.065284
-0.0668438
-0.0677031
-0.0677539
-0.0671037
-0.0660814
-0.0648942
-0.0634798
-0.061453
-0.0581838
-0.0530731
-0.0458715
-0.0367889
-0.0266036
-0.0163904
-0.0073221
-2.53544e-5
0.00521497
0.00878468
0.0114098
0.0140356
0.017439
0.0220979
0.0281951
0.0356306
0.0440781
0.0531561
0.0624641
0.0716197
0.0801663
0.0877153
0.0939036
0.0984778
0.101447
0.103061
0.103655
0.103619
0.103196
0.102406
0.10109
0.0990821
0.0963125
0.0928511
0.0890375
0.0853107
0.0821098
0.0798477
0.0786815
0.0786195
0.0794552
0.0808097
0.0821704
0.08306
0.0829906
0.0817392
0.0793291
0.076035
0.0723069
0.0685876
0.0652439
0.06236
0.0598711
0.057622
0.055511
0.053534
0.0517402
0.0501779
0.0487258
0.0470205
0.0446986
0.0414436
0.0373228
0.0326369
0.0280677
0.0243505
0.0220688
0.0214094
0.0221495
0.0236561
0.0251191
0.0257134
0.0249953
0.0228864
0.0197662
0.0162765
0.0131128
0.0108022
0.00959524
0.00926477
0.00943285
0.00960092
0.00936437
0.00847037
0.00692391
0.00491393
0.00266392
0.000436045
-0.00154734
-0.00314671
-0.0041918
-0.00458049
-0.00423247
-0.00308496
-0.00117947
0.00120093
0.00370323
0.00592547
0.00748899
0.0081866
0.00800634
0.0073733
0.00675751
0.00684209
0.00810409
0.0109373
0.0152668
0.0208439
0.0272805
0.0341498
0.041223
0.0484169
0.055786
0.0634329
0.0712901
0.0790609
0.0861838
0.0920368
0.0959501
0.0974038
0.0963745
0.0934774
0.0897311
0.0865089
0.0851788
0.0866149
0.0907904
0.0964574
0.101538
0.103499
0.100228
0.090653
0.0753168
0.0560218
0.0353399
0.0158555
-0.000669853
-0.013562
-0.0231258
-0.0302695
-0.0360121
-0.0409242
-0.0452813
-0.0490871
-0.0522305
-0.0545438
-0.0560067
-0.0567349
-0.056753
-0.0560876
-0.0547531
-0.0528607
-0.050622
-0.048385
-0.046577
-0.0456106
-0.0456423
-0.0465272
-0.0478631
-0.0491757
-0.050067
-0.0505549
-0.051248
-0.0534776
-0.0590454
-0.0698135
-0.0873886
-0.112471
-0.143904
-0.177984
-0.20789
-0.223505
-0.212139
-0.16076
-0.0598064
0.0922217
0.284582
0.492917
0.682134
0.814156
0.858554
0.802312
0.655067
0.447165
0.220847
0.0179142
-0.131756
-0.216663
-0.243232
-0.229597
-0.197183
-0.163618
-0.138788
-0.125108
-0.120186
-0.120126
-0.121622
-0.12288
-0.123391
-0.123243
-0.122699
-0.121825
-0.120561
-0.118855
-0.116671
-0.114012
-0.111003
-0.107904
-0.105111
-0.103069
-0.102048
-0.102028
-0.102711
-0.103558
-0.103936
-0.103473
-0.10203
-0.0997986
-0.0971462
-0.0944255
-0.0918687
-0.08949
-0.0871051
-0.0844577
-0.0813191
-0.0777037
-0.0737724
-0.069906
-0.0665214
-0.0639729
-0.0624067
-0.061706
-0.0616889
-0.0620432
-0.0624101
-0.0625185
-0.0621833
-0.0612517
-0.0597363
-0.0576957
-0.0553335
-0.0528088
-0.0503915
-0.0483035
-0.0466598
-0.0454765
-0.0446561
-0.0440901
-0.0436878
-0.043339
-0.0430674
-0.04297
-0.0430743
-0.0433668
-0.0437664
-0.0441059
-0.0442323
-0.0442317
-0.0442553
-0.044653
-0.0457794
-0.0477704
-0.0505376
-0.053756
-0.0568264
-0.0591676
-0.0603996
-0.0604419
-0.0595018
-0.0578148
-0.0555949
-0.0527871
-0.0491328
-0.0441912
-0.0374998
-0.0289245
-0.0185811
-0.00685429
0.00566003
0.0182472
0.0302008
0.0409253
0.0499238
0.0569697
0.0620167
0.0654195
0.0676505
0.0692319
0.0707432
0.0725016
0.0746758
0.0772442
0.0800632
0.0828677
0.0854771
0.0876634
0.0892812
0.0902112
0.0904601
0.0900924
0.0891716
0.087848
0.0863094
0.0846258
0.0828021
0.0808494
0.0787822
0.0765351
0.0741856
0.0717424
0.0692615
0.0667772
0.0643504
0.0620597
0.0598847
0.0578518
0.055967
0.0541197
0.0522073
0.0501827
0.0479881
0.0456239
0.0431427
0.0407001
0.0383834
0.0362917
0.0345503
0.0332074
0.0322102
0.0314839
0.0308577
0.0300496
0.0287958
0.0268951
0.024184
0.0206563
0.0164499
0.011838
0.00717921
0.00287698
-0.000688233
-0.00316701
-0.00437574
-0.00430542
-0.00318169
-0.00138528
0.000585447
0.0021154
0.00274146
0.00217114
0.000362506
-0.00244662
-0.00581513
-0.00921063
-0.0121143
-0.0142578
-0.015573
-0.0162157
-0.0165191
-0.0167353
-0.0170233
-0.0172746
-0.0173049
-0.016936
-0.0161676
-0.0151192
-0.0139265
-0.0125473
-0.0107449
-0.00808652
-0.00407379
0.00149722
0.00842497
0.0162191
0.0241373
0.0313549
0.0373986
0.0421551
0.0457779
0.0486989
0.051302
0.0540308
0.0571438
0.0608697
0.0653028
0.0703125
0.0755979
0.0806087
0.0847626
0.0874871
0.0883211
0.0871255
0.0842414
0.080311
0.0762626
0.0730614
0.071497
0.0720051
0.0743257
0.0774468
0.0796903
0.079294
0.074731
0.065322
0.0513387
0.0339285
0.014806
-0.00421567
-0.0214711
-0.0358479
-0.0467793
-0.0542482
-0.0587138
-0.0608939
-0.0617421
-0.0622003
-0.0629681
-0.064373
-0.0664767
-0.0690894
-0.0718835
-0.0744983
-0.0765096
-0.0776615
-0.0777615
-0.0769045
-0.0753566
-0.0736094
-0.0723628
-0.0726802
-0.0758431
-0.0832825
-0.0963735
-0.116198
-0.14291
-0.174777
-0.207583
-0.234334
-0.245317
-0.228988
-0.173954
-0.0720643
0.077911
0.267059
0.474671
0.670114
0.818431
0.888914
0.863941
0.745108
0.553929
0.326496
0.103625
-0.0802585
-0.205121
-0.267978
-0.279925
-0.259716
-0.226463
-0.194344
-0.170547
-0.156359
-0.149642
-0.147124
-0.146203
-0.145493
-0.144596
-0.143648
-0.14285
-0.142539
-0.14285
-0.143849
-0.145427
-0.147212
-0.148694
-0.14939
-0.148934
-0.147276
-0.144735
-0.141846
-0.139152
-0.136914
-0.13508
-0.133175
-0.130759
-0.127509
-0.123558
-0.119322
-0.115421
-0.112422
-0.110472
-0.10939
-0.108732
-0.107914
-0.106436
-0.104011
-0.100572
-0.0963253
-0.0916048
-0.0869198
-0.0829246
-0.0801796
-0.0790372
-0.0794512
-0.0810016
-0.0829231
-0.0843681
-0.0846881
-0.0835341
-0.0810673
-0.0776876
-0.0739643
-0.0703662
-0.0672926
-0.0648485
-0.0630365
-0.061836
-0.0612248
-0.0611429
-0.0615797
-0.0625348
-0.0638608
-0.0653969
-0.0668297
-0.0678754
-0.0683972
-0.0684644
-0.0683335
-0.0684055
-0.0690829
-0.0706533
-0.0732488
-0.0768187
-0.0811425
-0.0860188
-0.0910742
-0.0958935
-0.0999888
-0.102696
-0.103238
-0.100994
-0.0954382
-0.0865169
-0.0745773
-0.0604637
-0.0453286
-0.030312
-0.0163129
-0.00376589
0.00737622
0.0173875
0.0266232
0.0352853
0.0433738
0.0507907
0.057514
0.0637124
0.0696522
0.0756272
0.081705
0.0877284
0.0932205
0.0977216
0.100877
0.102683
0.103381
0.103347
0.102816
0.101864
0.100292
0.0978932
0.0945811
0.0905229
0.0860269
0.0815826
0.0775494
0.0741114
0.0712228
0.0686414
0.066227
0.063975
0.062001
0.060516
0.0597119
0.0595854
0.0597963
0.059832
0.0590697
0.05704
0.0538479
0.0499815
0.0462245
0.0434101
0.0420102
0.0419159
0.0426835
0.0434858
0.0435689
0.042443
0.0400295
0.0363948
0.0318493
0.0267143
0.0213507
0.0162448
0.0118794
0.00867856
0.00697539
0.0067877
0.00782383
0.00950232
0.0112047
0.0123616
0.0127254
0.0123642
0.0114722
0.0104371
0.00952199
0.00881983
0.00822721
0.00753862
0.00641184
0.00472895
0.00250437
-8.02717e-5
-0.00269174
-0.00496016
-0.00671097
-0.00783183
-0.00839562
-0.00847885
-0.00807789
-0.00720715
-0.00587509
-0.00418953
-0.00235243
-0.000643792
0.000758612
0.00175019
0.00250101
0.00331889
0.00462943
0.0065955
0.00934497
0.0127289
0.0164029
0.0200558
0.0234967
0.0266736
0.0297396
0.0329334
0.0364919
0.0404661
0.0448328
0.0494722
0.0543086
0.059316
0.0645042
0.0698574
0.0751164
0.0798332
0.083377
0.0851484
0.0847794
0.0824677
0.0788743
0.0751039
0.0723951
0.0719401
0.0741873
0.0788298
0.0846232
0.0896226
0.0917512
0.0892424
0.0811702
0.0677848
0.0503538
0.0308646
0.0115384
-0.00579977
-0.0200133
-0.0307651
-0.0384048
-0.0437164
-0.0475267
-0.050502
-0.0530625
-0.0552876
-0.0571078
-0.0584411
-0.059269
-0.0596714
-0.0597747
-0.059772
-0.0596931
-0.0596276
-0.0593916
-0.0588018
-0.0577395
-0.0562289
-0.0544112
-0.0528874
-0.0526496
-0.0552381
-0.0623975
-0.0756928
-0.0960461
-0.123074
-0.15444
-0.185387
-0.209046
-0.217013
-0.2004
-0.151014
-0.0626892
0.0671807
0.23608
0.435022
0.647807
0.851352
1.01811
1.12068
1.1378
1.06066
0.896733
0.669576
0.414121
0.1684
-0.0355737
-0.178523
-0.256908
-0.280864
-0.268538
-0.239297
-0.208548
-0.185098
-0.171461
-0.166031
-0.16561
-0.167377
-0.169772
-0.17233
-0.17496
-0.177557
-0.179731
-0.180967
-0.180886
-0.179346
-0.17642
-0.172449
-0.167753
-0.162632
-0.157398
-0.152343
-0.147846
-0.144343
-0.142051
-0.141036
-0.141032
-0.141603
-0.142118
-0.142186
-0.1415
-0.140182
-0.138459
-0.136678
-0.135064
-0.133664
-0.132342
-0.130811
-0.128925
-0.126651
-0.124159
-0.12172
-0.119654
-0.118036
-0.116856
-0.115777
-0.114486
-0.112674
-0.110033
-0.106508
-0.102391
-0.0980934
-0.0942186
-0.091416
-0.0901459
-0.0903781
-0.0918928
-0.094013
-0.0960578
-0.0974893
-0.0981473
-0.0981349
-0.0978769
-0.097827
-0.0981631
-0.0989212
-0.0998745
-0.100758
-0.101451
-0.102109
-0.103101
-0.104953
-0.107946
-0.112102
-0.117145
-0.122407
-0.127028
-0.13029
-0.131725
-0.131
-0.128114
-0.123199
-0.116401
-0.107858
-0.0976954
-0.086087
-0.0733563
-0.0600312
-0.0467037
-0.0338415
-0.0218621
-0.0106437
7.56089e-5
0.0107733
0.0218906
0.0336641
0.0460876
0.0589121
0.0715999
0.0836859
0.09464
0.104118
0.11193
0.118084
0.122811
0.126319
0.128899
0.13066
0.131702
0.13206
0.131797
0.131115
0.130278
0.129494
0.128885
0.128292
0.127466
0.126024
0.123834
0.120943
0.117686
0.114559
0.112009
0.110225
0.109191
0.108562
0.108046
0.107406
0.106495
0.105397
0.10426
0.103196
0.102245
0.10136
0.100375
0.0991105
0.097492
0.095498
0.0932036
0.0908504
0.0885989
0.0865835
0.0848926
0.0833688
0.0816891
0.0795016
0.0764689
0.0724164
0.0674257
0.0619342
0.0565154
0.0518597
0.0484686
0.046452
0.045585
0.045264
0.0447691
0.0436385
0.0417561
0.0393153
0.0368587
0.0349362
0.0338483
0.0334768
0.0334389
0.0331736
0.0322746
0.0306874
0.0286505
0.0266243
0.0250303
0.0240086
0.0233696
0.0227504
0.0217898
0.0202875
0.0183654
0.0162877
0.0143173
0.0126491
0.0113429
0.0104723
0.010232
0.010907
0.012692
0.0157714
0.0199672
0.0248879
0.0299427
0.0347834
0.0392301
0.0434208
0.0476891
0.0522976
0.0572579
0.0624485
0.0675754
0.0724585
0.0771376
0.0817459
0.0863455
0.0908198
0.0947981
0.0977286
0.0991604
0.0988653
0.0969764
0.0940161
0.0908055
0.0882101
0.0871727
0.088371
0.0921094
0.0980319
0.105088
0.111394
0.114967
0.113957
0.107468
0.0957593
0.0800977
0.0622945
0.0442891
0.0275041
0.0126314
-0.000134325
-0.0108701
-0.019683
-0.0265794
-0.0315519
-0.0348166
-0.0367441
-0.0378428
-0.0385755
-0.0392761
-0.0399717
-0.0406507
-0.0411621
-0.0414994
-0.0417446
-0.0420664
-0.0425987
-0.0435685
-0.0448807
-0.0464762
-0.0482424
-0.0499382
-0.051227
-0.0518433
-0.0517069
-0.0508144
-0.0496956
-0.0490474
-0.0500022
-0.0539439
-0.0622694
-0.076145
-0.0961743
-0.122198
-0.152804
-0.184797
-0.213133
-0.230768
-0.229042
-0.198121
-0.12855
-0.0141409
0.144956
0.339108
0.547451
0.739536
0.880778
0.940935
0.903274
0.770913
0.567504
0.331254
0.104485
-0.0782438
-0.19813
-0.254522
-0.261217
-0.238827
-0.207142
-0.179575
-0.161735
-0.153298
-0.151116
-0.151809
-0.153144
-0.154134
-0.154764
-0.154887
-0.154307
-0.15277
-0.150257
-0.147005
-0.143527
-0.140305
-0.1377
-0.135804
-0.134312
-0.132764
-0.130791
-0.128202
-0.125114
-0.121857
-0.118828
-0.116295
-0.114344
-0.112714
-0.110932
-0.108489
-0.105082
-0.100771
-0.0959919
-0.0915544
-0.0882231
-0.0866246
-0.0868799
-0.0886838
-0.0913202
-0.093968
-0.0959589
-0.097011
-0.0971531
-0.0966494
-0.0958469
-0.0950935
-0.0945353
-0.0940947
-0.0935928
-0.092823
-0.0914758
-0.0894522
-0.0867202
-0.0834568
-0.0799382
-0.0765727
-0.0736958
-0.0715937
-0.0704111
-0.0700923
-0.0704532
-0.071155
-0.0718115
-0.0719831
-0.07142
-0.070091
-0.0682756
-0.0664701
-0.0652247
-0.0649832
-0.0659322
-0.0677913
-0.0700849
-0.0723734
-0.0744002
-0.0761198
-0.0776918
-0.079245
-0.0806914
-0.0816677
-0.0815981
-0.0798717
-0.0759891
-0.0696948
-0.0610238
-0.0502938
-0.0379798
-0.0247322
-0.0111763
0.00204732
0.0144107
0.0255351
0.035183
0.0432102
0.0495891
0.0545218
0.0583035
0.0612925
0.0639528
0.0666305
0.0695951
0.0728446
0.0762371
0.0794818
0.0822609
0.0843618
0.0855868
0.0859255
0.0853791
0.0840529
0.0821224
0.0797802
0.077216
0.0746528
0.0723229
0.0703265
0.0688394
0.06784
0.0672065
0.066828
0.0665454
0.0660974
0.0653669
0.064313
0.062978
0.0615867
0.0603245
0.0593863
0.0587438
0.058237
0.057474
0.0560308
0.0535708
0.0499173
0.045241
0.0400305
0.0348624
0.0304189
0.0272147
0.025486
0.0251027
0.0257489
0.0268305
0.0277603
0.0281478
0.0277583
0.0265232
0.0245737
0.0221264
0.0194039
0.016623
0.0138874
0.0112927
0.00887937
0.00673114
0.00481082
0.00314823
0.0016577
0.000294252
-0.00103217
-0.00225544
-0.00336354
-0.00410129
-0.00437007
-0.00410935
-0.00336928
-0.00239509
-0.00141217
-0.00058951
0.000105353
0.000760696
0.00152733
0.00257229
0.003844
0.00510409
0.00607064
0.00642121
0.00600047
0.00481002
0.0032018
0.00159105
0.000501051
0.000171797
0.000632343
0.00152744
0.00241271
0.00277333
0.00243148
0.00158151
0.000847964
0.00104826
0.00287001
0.00683055
0.012878
0.0206197
0.0293765
0.0384532
0.0472689
0.055341
0.0625641
0.0690173
0.0748854
0.0805258
0.0862922
0.0923415
0.0985473
0.104386
0.109121
0.112043
0.112694
0.111113
0.10778
0.103612
0.0996106
0.0966973
0.0955591
0.0964937
0.0993302
0.103207
0.106774
0.108296
0.106212
0.0994907
0.0881149
0.0730339
0.055789
0.0380444
0.0212606
0.00630231
-0.00666571
-0.0175433
-0.0264479
-0.0333811
-0.038504
-0.0420549
-0.0445685
-0.0465419
-0.0484139
-0.050368
-0.052299
-0.0540606
-0.0555062
-0.0567052
-0.0578761
-0.0591764
-0.0606392
-0.0620541
-0.0631339
-0.063539
-0.0630556
-0.0616399
-0.0594414
-0.0567799
-0.0542939
-0.0529134
-0.0536208
-0.057442
-0.0650229
-0.0765492
-0.0918083
-0.11034
-0.131653
-0.155289
-0.180333
-0.204946
-0.225791
-0.237942
-0.23491
-0.209062
-0.152428
-0.0584874
0.0753315
0.24479
0.436541
0.627665
0.788347
0.887959
0.903407
0.826709
0.668974
0.458535
0.233612
0.0317644
-0.119861
-0.21018
-0.243987
-0.237298
-0.209903
-0.178767
-0.154279
-0.139873
-0.134197
-0.133831
-0.135545
-0.137286
-0.138267
-0.138424
-0.137905
-0.136809
-0.135183
-0.133054
-0.130561
-0.127779
-0.124896
-0.122069
-0.119383
-0.116839
-0.114372
-0.111839
-0.109014
-0.105715
-0.101876
-0.0976792
-0.0934503
-0.0896701
-0.0867418
-0.0848945
-0.0841028
-0.0840091
-0.0841271
-0.0838591
-0.0827109
-0.080509
-0.0773594
-0.0736649
-0.0700435
-0.0671758
-0.0655165
-0.0653799
-0.0667331
-0.0691947
-0.0722207
-0.0752059
-0.0775026
-0.0786682
-0.078435
-0.0768522
-0.0743815
-0.0716509
-0.0693877
-0.0681677
-0.0681371
-0.0690699
-0.0703482
-0.0712378
-0.071185
-0.0699125
-0.0675665
-0.0645796
-0.0615395
-0.0589249
-0.0571447
-0.0563648
-0.0567393
-0.0581608
-0.0604891
-0.0634728
-0.0668548
-0.0703185
-0.0735421
-0.0761945
-0.0781365
-0.0792356
-0.0794244
-0.0787582
-0.0772424
-0.074874
-0.0716761
-0.0675194
-0.062318
-0.056008
-0.0485303
-0.0400971
-0.0311764
-0.0224126
-0.0145163
-0.00819947
-0.00378225
-0.00125641
-0.000183221
0.000162702
0.00056862
0.0016771
0.00400057
0.00765216
0.0124439
0.0180192
0.0240211
0.0300521
0.0358669
0.0414736
0.046947
0.0524557
0.0581133
0.0637679
0.0690847
0.0735388
0.0766634
0.0781527
0.0780738
0.076757
0.0747199
0.0725779
0.0707173
0.0692348
0.0680124
0.0667957
0.0654063
0.0637621
0.0617658
0.0595567
0.0571546
0.0547077
0.052268
0.0499817
0.0480667
0.0467492
0.0462714
0.0467166
0.0480582
0.0499826
0.0520075
0.0535252
0.05403
0.0532672
0.0512696
0.0484772
0.0454773
0.0427784
0.0406467
0.0389788
0.0373958
0.035399
0.0324701
0.0284817
0.0235611
0.018058
0.0125692
0.00755405
0.00336912
0.000113879
-0.00233616
-0.00426848
-0.0059143
-0.00739302
-0.00874122
-0.00979421
-0.0105135
-0.010775
-0.0105921
-0.0100657
-0.00933339
-0.00862505
-0.00815613
-0.00819
-0.00897697
-0.0106806
-0.0132525
-0.016465
-0.0197529
-0.0226068
-0.024593
-0.0254041
-0.025097
-0.0239155
-0.022208
-0.0202789
-0.0184187
-0.0167921
-0.0156542
-0.0151843
-0.0155817
-0.0168738
-0.0188536
-0.0211075
-0.0231718
-0.0245729
-0.0250865
-0.024681
-0.0235452
-0.0219701
-0.0202914
-0.0186657
-0.0170767
-0.0153995
-0.0133575
-0.0106494
-0.00706264
-0.00257223
0.00272364
0.00850324
0.0145244
0.0205615
0.0266081
0.0327798
0.0392688
0.0461643
0.0534748
0.0609081
0.0679941
0.0741453
0.0788153
0.08155
0.0822855
0.0811625
0.0786023
0.0752469
0.0718849
0.0693688
0.0685084
0.0699276
0.0735708
0.0785472
0.0831997
0.0852544
0.0826797
0.0743981
0.0605952
0.0428604
0.0236376
0.00545454
-0.00975092
-0.0210338
-0.028588
-0.0333098
-0.0362401
-0.0384212
-0.0405874
-0.0431762
-0.0463769
-0.0500343
-0.0538279
-0.0572943
-0.059994
-0.0616117
-0.0621762
-0.0619363
-0.0613099
-0.0608032
-0.0608812
-0.0617268
-0.0633661
-0.0655694
-0.068047
-0.0705319
-0.0727254
-0.0745525
-0.0762729
-0.0787213
-0.0831598
-0.0912187
-0.104461
-0.123958
-0.149641
-0.179789
-0.210533
-0.236003
-0.248415
-0.238715
-0.197431
-0.116418
0.0088219
0.175963
0.373426
0.579307
0.763621
0.893834
0.942817
0.896893
0.761202
0.559407
0.327871
0.10602
-0.074049
-0.19467
-0.254542
-0.265515
-0.246311
-0.215313
-0.185925
-0.164821
-0.153107
-0.148616
-0.148423
-0.150229
-0.152709
-0.155294
-0.157561
-0.15905
-0.159464
-0.158556
-0.156476
-0.153672
-0.150591
-0.147566
-0.14488
-0.142531
-0.140426
-0.138499
-0.136626
-0.134679
-0.13262
-0.130482
-0.128356
-0.126454
-0.125002
-0.124089
-0.123693
-0.123653
-0.123729
-0.123633
-0.12317
-0.122136
-0.120472
-0.118164
-0.115173
-0.111645
-0.107751
-0.103751
-0.100069
-0.0971093
-0.0952266
-0.094538
-0.0949198
-0.095944
-0.096954
-0.0973427
-0.0967395
-0.0950986
-0.0926752
-0.0899414
-0.0873311
-0.0850821
-0.0832458
-0.0818056
-0.0806998
-0.0800402
-0.0799536
-0.0805459
-0.081835
-0.0835536
-0.0853267
-0.0867265
-0.0873784
-0.0872736
-0.0866508
-0.085955
-0.0856306
-0.0859817
-0.0870136
-0.0883842
-0.0897449
-0.0907548
-0.0913871
-0.0920088
-0.093123
-0.0951585
-0.0981023
-0.101356
-0.103848
-0.104282
-0.10173
-0.0957883
-0.0869453
-0.0762664
-0.0650215
-0.0544445
-0.0452473
-0.0375602
-0.0311561
-0.0255631
-0.0202826
-0.0150285
-0.00956308
-0.0037621
0.00262345
0.00984176
0.0182755
0.0281274
0.0392759
0.0513035
0.0634232
0.0746891
0.0842947
0.091656
0.0967499
0.0997774
0.101274
0.101757
0.101638
0.101116
0.10025
0.0991451
0.0980423
0.0972682
0.0972224
0.0981533
0.0999911
0.102404
0.10469
0.106206
0.106397
0.105133
0.102581
0.0991209
0.0952405
0.0913212
0.0875796
0.0841456
0.08101
0.0782208
0.0757421
0.0736255
0.0718957
0.0705627
0.0695226
0.0685698
0.0675326
0.0662531
0.0646712
0.0629541
0.0612387
0.0597277
0.0585014
0.0574135
0.0562338
0.0546355
0.0524364
0.0496254
0.0464055
0.0431773
0.040334
0.0381413
0.0366869
0.0358635
0.0354694
0.0352243
0.0348916
0.0344206
0.0337301
0.0327915
0.0315218
0.0298527
0.0276905
0.0251264
0.0223769
0.0197185
0.0175711
0.0161709
0.0156673
0.0159111
0.0166734
0.0176051
0.0183803
0.0187664
0.0186593
0.0179849
0.0168385
0.0153459
0.0137345
0.0122636
0.0112094
0.0108031
0.0110254
0.011635
0.0123827
0.0126659
0.0121827
0.0107141
0.00838144
0.00549627
0.00259004
0.000252861
-0.00100218
-0.000722836
0.00128364
0.00510677
0.0106124
0.0175585
0.0255245
0.0340288
0.0425786
0.0507517
0.0582432
0.0649631
0.0710989
0.0769863
0.0828987
0.088878
0.0947915
0.100272
0.104633
0.107543
0.108636
0.107989
0.106084
0.103569
0.101371
0.100335
0.101164
0.103986
0.10828
0.112781
0.115784
0.115611
0.111241
0.102561
0.0905016
0.0766547
0.0627316
0.0500523
0.0391043
0.0295963
0.0208326
0.0121473
0.00338191
-0.00521646
-0.0129836
-0.0193922
-0.0240893
-0.0271998
-0.0293442
-0.0311738
-0.0332961
-0.0359209
-0.0389637
-0.0418875
-0.0441895
-0.0454712
-0.0457002
-0.0451053
-0.0442346
-0.0433967
-0.0427704
-0.0421838
-0.0414575
-0.0403354
-0.0391242
-0.0386561
-0.0404424
-0.0462774
-0.0578714
-0.0763867
-0.101916
-0.132959
-0.16614
-0.19609
-0.215656
-0.216225
-0.188431
-0.123345
-0.0145084
0.138919
0.329317
0.538587
0.738776
0.896335
0.979882
0.968954
0.86113
0.674211
0.442472
0.207191
0.00566782
-0.138118
-0.217605
-0.241814
-0.2294
-0.20073
-0.171708
-0.150931
-0.140195
-0.137118
-0.137876
-0.139394
-0.140039
-0.139489
-0.13812
-0.136253
-0.134104
-0.131696
-0.128978
-0.125993
-0.122777
-0.119501
-0.116401
-0.113669
-0.111466
-0.109825
-0.108651
-0.107702
-0.10669
-0.105545
-0.104204
-0.102824
-0.101699
-0.101078
-0.101079
-0.101526
-0.102107
-0.10243
-0.102176
-0.10125
-0.0997797
-0.0980654
-0.0963477
-0.0947514
-0.093277
-0.0916841
-0.0897513
-0.0874077
-0.0846237
-0.081633
-0.0786892
-0.0760842
-0.0739563
-0.0724056
-0.0713591
-0.0705451
-0.0698055
-0.0688795
-0.0676647
-0.0661144
-0.0643262
-0.0625205
-0.0609047
-0.0596563
-0.0589413
-0.0587416
-0.0589318
-0.0593436
-0.0598612
-0.0604499
-0.0611408
-0.0620552
-0.063199
-0.0644274
-0.0655529
-0.0663523
-0.0666556
-0.0664937
-0.0660809
-0.0657643
-0.065898
-0.0667395
-0.0683646
-0.0707254
-0.0734422
-0.0759447
-0.0774932
-0.0772512
-0.074545
-0.0690655
-0.0610483
-0.0511598
-0.0405471
-0.0303765
-0.0216487
-0.0149344
-0.0102278
-0.00708202
-0.00479032
-0.00252718
0.00048471
0.00489633
0.0110596
0.0190397
0.0286594
0.0394542
0.0507494
0.0618435
0.0721796
0.0813567
0.0892796
0.0958864
0.101307
0.105645
0.10892
0.111254
0.112861
0.113929
0.114759
0.115532
0.116296
0.116892
0.117018
0.116379
0.114828
0.112478
0.109546
0.106467
0.103566
0.101073
0.098997
0.0972316
0.0956592
0.0941178
0.0925502
0.0909256
0.0891994
0.0874371
0.0856443
0.0838777
0.082209
0.0806426
0.079164
0.0777499
0.0763488
0.074938
0.0734742
0.07201
0.0704799
0.0687664
0.0667081
0.0641067
0.0609734
0.0573494
0.0534249
0.0495327
0.0459498
0.0429208
0.0405311
0.0388677
0.0378006
0.0372317
0.0370584
0.0371813
0.0374815
0.0377923
0.0379068
0.0376133
0.0367594
0.0352801
0.0333143
0.0310858
0.0289588
0.0271917
0.0259507
0.0252232
0.0248686
0.0246495
0.0243546
0.0239162
0.0234869
0.0231596
0.0230642
0.0231536
0.0232656
0.022984
0.0220002
0.0202018
0.0177672
0.015192
0.0132004
0.0125315
0.0136698
0.0167366
0.0214727
0.0273384
0.03372
0.0400438
0.0459762
0.0514118
0.0564694
0.061332
0.0662585
0.0715215
0.0773384
0.0836928
0.0902811
0.0966314
0.101959
0.105506
0.10672
0.1055
0.102359
0.0983309
0.0947945
0.0930736
0.0941479
0.0982101
0.104461
0.111185
0.116148
0.117269
0.113057
0.103229
0.0885756
0.0706983
0.0514132
0.0324718
0.015084
2.44466e-5
-0.012429
-0.0221489
-0.0291591
-0.0336442
-0.0359161
-0.0364907
-0.0359903
-0.034919
-0.0337576
-0.0327774
-0.0321845
-0.0320072
-0.0322988
-0.0330751
-0.0343532
-0.0360751
-0.0382066
-0.0406059
-0.0429626
-0.0447918
-0.045753
-0.045636
-0.0444798
-0.0428098
-0.0416993
-0.0428064
-0.0479931
-0.0590571
-0.0771657
-0.10259
-0.133979
-0.167769
-0.198141
-0.217018
-0.214384
-0.179517
-0.102849
0.0209587
0.189536
0.389948
0.598008
0.780865
0.903879
0.939648
0.876795
0.724559
0.511789
0.278961
0.0669022
-0.0942417
-0.191599
-0.229759
-0.225529
-0.19995
-0.171018
-0.149332
-0.137865
-0.134603
-0.13555
-0.137326
-0.138146
-0.137598
-0.136082
-0.134028
-0.131616
-0.128886
-0.125851
-0.122641
-0.119523
-0.11681
-0.114769
-0.11363
-0.113503
-0.114349
-0.116066
-0.118319
-0.1206
-0.122239
-0.122671
-0.121528
-0.118808
-0.114898
-0.110367
-0.105862
-0.101814
-0.0982444
-0.0949787
-0.0917455
-0.0883292
-0.0847807
-0.0813342
-0.0782325
-0.0757353
-0.0739235
-0.0726176
-0.0716169
-0.0707121
-0.0696784
-0.0685419
-0.0675174
-0.0668079
-0.066603
-0.0669763
-0.067824
-0.0688781
-0.0697667
-0.0701838
-0.0699624
-0.0692332
-0.0682232
-0.0671765
-0.0662834
-0.0654676
-0.0644744
-0.0630884
-0.0611813
-0.0588352
-0.0563569
-0.0540978
-0.0523474
-0.0512479
-0.0506413
-0.0502293
-0.0498239
-0.0493164
-0.048815
-0.0486175
-0.049099
-0.0505046
-0.0530059
-0.0563738
-0.0601687
-0.0638085
-0.0665256
-0.0675881
-0.0663192
-0.0622372
-0.0551306
-0.0451425
-0.0328896
-0.0193209
-0.00561619
0.007132
0.0181439
0.0270825
0.0341629
0.0400024
0.0452804
0.0504771
0.0557993
0.061104
0.0661587
0.0707159
0.0746426
0.0779836
0.0808197
0.0830911
0.0846449
0.085283
0.0849228
0.0837336
0.0820584
0.0803256
0.0788975
0.0779501
0.0774919
0.0774116
0.0776115
0.0780691
0.078677
0.0793911
0.0799988
0.0802921
0.0800821
0.0793166
0.0780671
0.0764561
0.074656
0.0728482
0.0711148
0.0694982
0.0679587
0.0664029
0.0646681
0.0627099
0.0604904
0.0580051
0.0553691
0.0527267
0.0502051
0.0478679
0.045674
0.0436116
0.0416669
0.0398069
0.0380764
0.0364055
0.0348445
0.0333034
0.0317887
0.0302213
0.0285756
0.0268629
0.0250877
0.0232539
0.0213838
0.0194289
0.0173669
0.0151964
0.012975
0.010833
0.0089944
0.00772049
0.00728019
0.00771488
0.00889383
0.0104411
0.0119112
0.0128535
0.0130178
0.0124765
0.0114756
0.0103571
0.00943006
0.00892954
0.00882428
0.00911938
0.00961377
0.0101277
0.0104297
0.0102422
0.00940622
0.00785908
0.00576415
0.00340086
0.00119218
-0.000397515
-0.00101124
-0.000279421
0.00193844
0.0058299
0.0112918
0.0181453
0.0259375
0.0342406
0.042637
0.0507508
0.0583711
0.0653124
0.0713512
0.0761978
0.0796046
0.0813847
0.0817799
0.0814063
0.0811942
0.0821169
0.0848737
0.0896527
0.0959464
0.102773
0.108982
0.113472
0.11567
0.115585
0.113858
0.111503
0.109709
0.109479
0.111366
0.115147
0.119664
0.122994
0.122966
0.117829
0.106709
0.0900211
0.0692164
0.0464852
0.0242245
0.00428292
-0.0121575
-0.0246162
-0.0333008
-0.0388324
-0.041936
-0.0435002
-0.0443781
-0.0452447
-0.0464728
-0.0481868
-0.0502412
-0.052379
-0.0543244
-0.0559151
-0.0570899
-0.0579523
-0.0586153
-0.0590449
-0.0591491
-0.0589245
-0.0584371
-0.0580099
-0.0581449
-0.0596069
-0.0634966
-0.0708701
-0.0827803
-0.100063
-0.123042
-0.151144
-0.182378
-0.212596
-0.235503
-0.242628
-0.223948
-0.169292
-0.0709466
0.0728882
0.254811
0.456218
0.648376
0.797355
0.872101
0.853652
0.741877
0.557118
0.335108
0.116934
-0.0623663
-0.182548
-0.241008
-0.249825
-0.228627
-0.196927
-0.168484
-0.149435
-0.139738
-0.136277
-0.135543
-0.135126
-0.13405
-0.132226
-0.13
-0.127528
-0.124931
-0.122214
-0.119437
-0.116817
-0.114553
-0.112846
-0.111868
-0.111692
-0.112212
-0.113187
-0.114279
-0.115145
-0.115474
-0.115071
-0.113856
-0.111856
-0.109077
-0.10563
-0.101653
-0.0974371
-0.0932553
-0.0894301
-0.08604
-0.083091
-0.0803185
-0.0774845
-0.0744017
-0.0711594
-0.0681406
-0.0658185
-0.064577
-0.0644609
-0.0651367
-0.0659378
-0.0661937
-0.0654113
-0.0635027
-0.0607124
-0.0575637
-0.0547177
-0.0525567
-0.0513171
-0.0510148
-0.0513958
-0.052221
-0.0532208
-0.054226
-0.0550011
-0.055414
-0.0552517
-0.0542925
-0.0524953
-0.0499254
-0.047004
-0.0442352
-0.0421912
-0.0412362
-0.0415562
-0.0429066
-0.0449135
-0.0471372
-0.0492357
-0.051047
-0.0526594
-0.0543175
-0.056167
-0.058458
-0.0610281
-0.063534
-0.0654029
-0.065842
-0.0641415
-0.0597696
-0.0526456
-0.0431504
-0.032076
-0.020413
-0.00912857
0.00103259
0.00991788
0.0176485
0.0246242
0.0312565
0.0377871
0.0441498
0.0500851
0.0553067
0.0596788
0.0631868
0.0660863
0.0685866
0.0709009
0.0729903
0.0746179
0.0754405
0.0752198
0.0737822
0.0713973
0.068462
0.0656523
0.0636221
0.0629558
0.0638599
0.066218
0.0694819
0.0727405
0.0750533
0.0756589
0.0742747
0.0711267
0.0669256
0.0625719
0.0587884
0.0559103
0.0538134
0.0520621
0.050151
0.0476924
0.0447123
0.0414605
0.0383125
0.03554
0.0333371
0.0315459
0.0299586
0.0282506
0.0262656
0.0239947
0.0216392
0.0194735
0.017773
0.0167142
0.0162484
0.0161604
0.0160157
0.0154373
0.0141372
0.0119424
0.00909691
0.00602405
0.00325961
0.00124041
0.000208464
0.000112176
0.000569929
0.00110523
0.00136036
0.0010166
-6.72012e-5
-0.00191784
-0.00448513
-0.00759209
-0.010984
-0.0143158
-0.0172017
-0.0192875
-0.020326
-0.0203234
-0.0194301
-0.0179616
-0.0162329
-0.0144717
-0.0128442
-0.0113793
-0.0101516
-0.00917778
-0.00845751
-0.00803447
-0.00784489
-0.00784907
-0.00788837
-0.00781446
-0.00762091
-0.00724929
-0.00679666
-0.0062679
-0.00576534
-0.00525017
-0.00470525
-0.00410305
-0.00338239
-0.00245734
-0.00121448
0.000516896
0.00293197
0.00630085
0.010866
0.016796
0.0240877
0.0326227
0.0421176
0.0520704
0.0619486
0.0711228
0.0790782
0.0853917
0.0897613
0.0920821
0.0924669
0.091234
0.0889862
0.086395
0.0843013
0.0832944
0.0836797
0.0851641
0.0867312
0.0869221
0.0842192
0.0774685
0.0663496
0.0513497
0.0338099
0.0154533
-0.0019566
-0.0171081
-0.029155
-0.0377854
-0.0431649
-0.045685
-0.0461199
-0.0454296
-0.0446008
-0.0444833
-0.0455794
-0.047941
-0.0512571
-0.0550282
-0.0586681
-0.0616523
-0.0638633
-0.0653946
-0.0665448
-0.0676967
-0.0691415
-0.0710393
-0.0733529
-0.0757635
-0.0780293
-0.0803829
-0.0838534
-0.0899302
-0.100607
-0.11775
-0.141949
-0.171617
-0.202238
-0.225964
-0.23186
-0.207262
-0.140317
-0.0237912
0.140805
0.340057
0.54792
0.729271
0.847903
0.8762
0.80431
0.644361
0.427834
0.196958
-0.00733372
-0.156434
-0.239957
-0.26498
-0.249969
-0.216726
-0.18305
-0.15894
-0.146875
-0.144404
-0.147307
-0.151844
-0.155841
-0.158545
-0.159978
-0.160441
-0.160233
-0.159702
-0.159193
-0.158935
-0.159098
-0.159439
-0.159456
-0.158648
-0.156487
-0.152784
-0.14774
-0.141856
-0.135844
-0.130428
-0.126121
-0.123128
-0.121343
-0.120452
-0.120126
-0.120102
-0.120259
-0.120589
-0.121047
-0.121455
-0.121407
-0.120432
-0.118088
-0.114247
-0.109115
-0.103393
-0.0978701
-0.0933485
-0.0903478
-0.0888933
-0.0887418
-0.08931
-0.0900912
-0.0907471
-0.0912287
-0.0916646
-0.0922121
-0.0928392
-0.0932476
-0.0929303
-0.091324
-0.0881313
-0.0834785
-0.0778946
-0.0722861
-0.0676409
-0.0647628
-0.0639351
-0.0650629
-0.0675849
-0.0708819
-0.0743467
-0.0777199
-0.0809809
-0.0842903
-0.0878923
-0.0918277
-0.0959047
-0.0997588
-0.102998
-0.105376
-0.10698
-0.108135
-0.109274
-0.110661
-0.111998
-0.112486
-0.110819
-0.105619
-0.095924
-0.0815776
-0.0633036
-0.0425946
-0.0212338
-0.000787465
0.0175987
0.0335126
0.0470062
0.0585048
0.0684297
0.0770603
0.084589
0.0910925
0.0965763
0.101213
0.10518
0.108668
0.111834
0.114599
0.116722
0.117947
0.118003
0.116894
0.114714
0.111876
0.108808
0.105901
0.103452
0.101594
0.100222
0.0992034
0.0984606
0.0978503
0.0973625
0.0969307
0.0964774
0.0958403
0.0948502
0.0933999
0.0915179
0.0892975
0.0870283
0.0848825
0.0829116
0.0808923
0.0785195
0.075494
0.0716292
0.0670084
0.0619747
0.0570084
0.0526752
0.0494427
0.0475411
0.0469087
0.0471748
0.0477768
0.0480093
0.0473262
0.0453986
0.0423158
0.038506
0.0347484
0.0318119
0.0302196
0.0301483
0.0313625
0.0332333
0.0351199
0.0363904
0.0366724
0.0357923
0.0337559
0.0306702
0.0266166
0.0219028
0.0168931
0.0121211
0.00819893
0.00560298
0.00456888
0.00506421
0.0066725
0.00878307
0.0107773
0.0121416
0.0126192
0.0122883
0.0114076
0.0103704
0.00961981
0.00931979
0.00950548
0.00999133
0.0104095
0.0103764
0.00961983
0.00793884
0.00541186
0.00236212
-0.000634131
-0.00286307
-0.00351629
-0.00199565
0.00193376
0.00817483
0.0161329
0.0249712
0.0338243
0.041992
0.0490433
0.0550379
0.0602762
0.0652684
0.0705658
0.076482
0.0829535
0.0895833
0.0955796
0.100015
0.102225
0.101988
0.0996023
0.0959664
0.0920733
0.0888163
0.0868138
0.0863211
0.0874403
0.0902658
0.0949203
0.101234
0.108596
0.115603
0.120306
0.120756
0.115654
0.104761
0.089174
0.0708274
0.0518945
0.034169
0.0186077
0.00538169
-0.00582642
-0.0154179
-0.0236916
-0.0306776
-0.0362966
-0.0406332
-0.0438278
-0.0461411
-0.0478783
-0.0491505
-0.0500618
-0.050584
-0.0507325
-0.0505774
-0.0503016
-0.0499143
-0.0493892
-0.0486214
-0.0475619
-0.0462696
-0.0453228
-0.0457883
-0.0493171
-0.0577261
-0.0725317
-0.0946185
-0.123471
-0.156529
-0.188736
-0.212646
-0.218504
-0.195098
-0.131665
-0.0208318
0.137818
0.334135
0.546035
0.741221
0.88357
0.942156
0.900927
0.764558
0.558691
0.323054
0.1003
-0.075808
-0.188187
-0.238044
-0.240464
-0.216533
-0.18562
-0.160238
-0.145065
-0.138944
-0.138264
-0.139484
-0.140588
-0.141077
-0.141372
-0.141963
-0.143094
-0.144562
-0.146001
-0.146863
-0.14685
-0.145792
-0.143766
-0.140974
-0.137691
-0.134202
-0.130736
-0.127412
-0.12431
-0.121532
-0.11909
-0.116978
-0.115132
-0.113391
-0.111577
-0.109663
-0.107715
-0.10579
-0.103938
-0.102071
-0.0999605
-0.0973588
-0.0940682
-0.090168
-0.0858736
-0.0816702
-0.0780093
-0.0752354
-0.0734324
-0.0723846
-0.0717995
-0.0713507
-0.0708152
-0.0701958
-0.069531
-0.0689933
-0.0686926
-0.0686551
-0.0687754
-0.0689198
-0.068956
-0.0688022
-0.0684957
-0.0682122
-0.0680901
-0.0681851
-0.0683942
-0.0684638
-0.0680619
-0.0669714
-0.065187
-0.0630394
-0.0610834
-0.0599094
-0.0599942
-0.0615123
-0.0641954
-0.0675907
-0.0710706
-0.0740228
-0.0762806
-0.0778717
-0.0792262
-0.0808845
-0.0832787
-0.0862427
-0.0890365
-0.0904056
-0.0888346
-0.083157
-0.0729006
-0.0585296
-0.0413781
-0.0231917
-0.00567114
0.0100964
0.0236891
0.0354287
0.0458959
0.055648
0.0649678
0.0737554
0.081615
0.0882483
0.0934008
0.0970956
0.0996169
0.101259
0.102297
0.102938
0.103351
0.103569
0.103618
0.103497
0.103108
0.102383
0.101157
0.0992726
0.0966764
0.0934088
0.0897004
0.0859883
0.0827839
0.0805265
0.0794778
0.0795921
0.080539
0.0817753
0.08277
0.0830543
0.0824468
0.0808676
0.078434
0.0753313
0.0716981
0.0676891
0.0634592
0.059215
0.0551678
0.0515387
0.0484352
0.0458079
0.0434805
0.0412772
0.0389087
0.0362783
0.0334119
0.0303805
0.0273071
0.0242716
0.0213482
0.0186037
0.0161699
0.0143209
0.0133113
0.0131978
0.0139136
0.0151042
0.0162513
0.0167401
0.016159
0.0143083
0.0113328
0.00769658
0.00399165
0.000790307
-0.00146353
-0.00269901
-0.0030262
-0.0029524
-0.00288815
-0.0033398
-0.00448976
-0.00622096
-0.00813713
-0.00968059
-0.0103276
-0.00973567
-0.00799677
-0.00544866
-0.00279045
-0.000742551
0.000123121
-0.000329962
-0.00195132
-0.00423233
-0.00654321
-0.00835646
-0.00925283
-0.00899179
-0.00743366
-0.00448445
-0.000164843
0.00551887
0.0123318
0.0198264
0.0273402
0.034349
0.0404533
0.0456746
0.0503909
0.0551768
0.0605605
0.0668
0.0738194
0.0810339
0.0876467
0.0927939
0.0958293
0.0964247
0.0947353
0.0912675
0.086781
0.0822662
0.0785885
0.0765538
0.0767148
0.0792081
0.0836147
0.0887724
0.0929917
0.0944488
0.0917045
0.0841435
0.0721962
0.0571738
0.0407848
0.0246616
0.00992173
-0.00280165
-0.0133829
-0.0218875
-0.0284826
-0.0333229
-0.0367468
-0.0391533
-0.040925
-0.0424167
-0.0437745
-0.0451404
-0.0465335
-0.0480914
-0.0499553
-0.0522848
-0.055115
-0.0581682
-0.0610309
-0.0630663
-0.0639646
-0.063554
-0.0621495
-0.0606773
-0.0605179
-0.0634425
-0.0712196
-0.0854025
-0.106574
-0.134128
-0.16578
-0.197742
-0.224999
-0.242115
-0.243894
-0.225491
-0.182098
-0.108874
-0.00175584
0.140445
0.313086
0.502986
0.687788
0.838444
0.925373
0.926695
0.835808
0.664665
0.441787
0.204979
-0.00858514
-0.171496
-0.271381
-0.311313
-0.305636
-0.273481
-0.232785
-0.196111
-0.169616
-0.154258
-0.147751
-0.146617
-0.147717
-0.14908
-0.149764
-0.149646
-0.149018
-0.148231
-0.147566
-0.147177
-0.146994
-0.146879
-0.146627
-0.146003
-0.144809
-0.142803
-0.139881
-0.13599
-0.131388
-0.126387
-0.121468
-0.11714
-0.113689
-0.111254
-0.109773
-0.108918
-0.108252
-0.107316
-0.105779
-0.103446
-0.100419
-0.0969653
-0.0936112
-0.0908346
-0.0890317
-0.088336
-0.0886621
-0.0896307
-0.0908156
-0.0918359
-0.0923472
-0.0921707
-0.0911614
-0.0892579
-0.0864185
-0.0827458
-0.0785211
-0.0741265
-0.070085
-0.0667305
-0.0642768
-0.0627309
-0.0619113
-0.0616203
-0.0616783
-0.0619462
-0.0622562
-0.0625129
-0.0625255
-0.0620634
-0.0610161
-0.0593222
-0.0571313
-0.0548102
-0.0528187
-0.0516126
-0.051627
-0.0530423
-0.055716
-0.0592221
-0.0629557
-0.066392
-0.0690802
-0.070758
-0.0712807
-0.0705359
-0.0682273
-0.0639871
-0.0575537
-0.0488535
-0.0382382
-0.0264212
-0.0144479
-0.00341998
0.0057983
0.0126913
0.01728
0.0198347
0.0210136
0.0214898
0.0219358
0.0228448
0.0246158
0.0274842
0.0314796
0.0364707
0.0420441
0.0478124
0.053264
0.0578749
0.0613685
0.0637253
0.0652588
0.0664828
0.068011
0.0702759
0.0734003
0.0771221
0.0808062
0.0837674
0.0854229
0.0855634
0.084338
0.0822235
0.0798444
0.0776983
0.076048
0.0748447
0.0737835
0.0724486
0.070473
0.0677025
0.0643603
0.0608042
0.0575187
0.0549749
0.0533799
0.0527334
0.0527457
0.0530109
0.0531486
0.0528541
0.0519867
0.0505126
0.0485261
0.0460866
0.0433652
0.0404092
0.0373669
0.0344647
0.0318705
0.029752
0.0281256
0.0269064
0.0259331
0.0250748
0.0242263
0.023253
0.0220145
0.0203975
0.0181941
0.0153096
0.0118113
0.00798952
0.00429506
0.00113472
-0.00121736
-0.00273506
-0.00362156
-0.00422468
-0.00481268
-0.00555781
-0.00654373
-0.00768075
-0.00886222
-0.0100158
-0.0110451
-0.0119012
-0.0124871
-0.0127357
-0.0125965
-0.0121842
-0.0117228
-0.0115293
-0.0119669
-0.0132873
-0.0155334
-0.0185415
-0.0218929
-0.0250698
-0.0275581
-0.0288967
-0.0289764
-0.027828
-0.0257777
-0.0232248
-0.0206327
-0.0183707
-0.0165866
-0.0152821
-0.0142914
-0.0133705
-0.0123262
-0.0109341
-0.0091697
-0.00704855
-0.00459883
-0.00177636
0.00144383
0.0052595
0.00986685
0.0152871
0.0214538
0.0280523
0.0347609
0.0413046
0.047632
0.0539677
0.0607506
0.0683651
0.0769005
0.0860114
0.0949263
0.102657
0.108227
0.111036
0.110938
0.108445
0.104543
0.100358
0.0970978
0.0956984
0.0965617
0.0994342
0.103381
0.106744
0.10768
0.10463
0.0967145
0.084175
0.0680675
0.0501041
0.0319973
0.0150741
0.000115059
-0.0125837
-0.0228933
-0.0306678
-0.0357509
-0.0380354
-0.0378177
-0.0357853
-0.0329799
-0.0305664
-0.0295558
-0.0304503
-0.0331819
-0.0371683
-0.041513
-0.0453941
-0.0483099
-0.0501064
-0.0510691
-0.0516623
-0.0523213
-0.0532951
-0.0544346
-0.055391
-0.0557148
-0.0551714
-0.053862
-0.0522771
-0.0512796
-0.0520806
-0.0559558
-0.0640814
-0.0773391
-0.0961516
-0.120268
-0.148444
-0.1779
-0.204074
-0.220721
-0.220121
-0.193628
-0.133007
-0.0324795
0.10858
0.283097
0.474687
0.658242
0.803701
0.882612
0.875968
0.780678
0.611919
0.400051
0.182667
-0.00565895
-0.141706
-0.217976
-0.241648
-0.229193
-0.199576
-0.168197
-0.14403
-0.129708
-0.123773
-0.12315
-0.124856
-0.12696
-0.128558
-0.129208
-0.128853
-0.127566
-0.125622
-0.12347
-0.121511
-0.119986
-0.118884
-0.117897
-0.116639
-0.114704
-0.111965
-0.108373
-0.104122
-0.0995094
-0.0948419
-0.0904387
-0.0865591
-0.0834006
-0.081026
-0.0794118
-0.0784533
-0.0779205
-0.0776228
-0.0774763
-0.0774903
-0.07781
-0.078545
-0.07961
-0.0807494
-0.0814112
-0.0810614
-0.0793114
-0.0761198
-0.0718668
-0.0671335
-0.062658
-0.0589857
-0.0564077
-0.0549072
-0.0542358
-0.0541112
-0.054289
-0.0546346
-0.0551437
-0.0558419
-0.0566967
-0.0575707
-0.0582278
-0.0584091
-0.0579786
-0.0569466
-0.0556575
-0.0544748
-0.0537219
-0.0535917
-0.0539998
-0.054675
-0.0552995
-0.0555285
-0.0551602
-0.0541399
-0.0525459
-0.0506238
-0.0486887
-0.0471451
-0.0464864
-0.0470234
-0.0488303
-0.0516596
-0.0549315
-0.0578058
-0.0593585
-0.058871
-0.0559722
-0.050758
-0.0437137
-0.035677
-0.0275353
-0.0200498
-0.0137061
-0.00851144
-0.00419746
-0.000298799
0.00372104
0.00814524
0.0131193
0.0185984
0.0245177
0.0308439
0.0375205
0.0444493
0.0515275
0.0583698
0.0644819
0.0694818
0.073117
0.0753436
0.0763278
0.0764384
0.0760467
0.0754518
0.0749151
0.0744513
0.0740132
0.0734106
0.0724799
0.0711208
0.069438
0.0677008
0.06618
0.0652421
0.0649919
0.0653669
0.0660825
0.0667826
0.0672398
0.0673177
0.0669999
0.0664692
0.0658768
0.0652816
0.0645923
0.0636459
0.0623009
0.0604188
0.0581004
0.0554629
0.0527933
0.0502897
0.0479718
0.0458593
0.0438049
0.0416453
0.0392886
0.036654
0.0338291
0.0309517
0.0282018
0.0257261
0.0235945
0.0218074
0.0202868
0.0190204
0.0179387
0.0169235
0.016009
0.0150776
0.0141043
0.0130193
0.0116648
0.00993458
0.00764208
0.00474467
0.00122703
-0.00265593
-0.00641632
-0.00951041
-0.0114122
-0.0118692
-0.0111732
-0.00989968
-0.00880201
-0.00858895
-0.00960059
-0.0118158
-0.0148312
-0.0180963
-0.021049
-0.0233825
-0.0249509
-0.0256682
-0.0256745
-0.0250392
-0.0238829
-0.0223757
-0.0206125
-0.0188199
-0.0171963
-0.0158146
-0.0147593
-0.0140389
-0.0135913
-0.013313
-0.0131424
-0.0129447
-0.0125187
-0.0116253
-0.0101016
-0.00776979
-0.00459886
-0.000566393
0.00424652
0.00975868
0.0158252
0.022333
0.0290862
0.0358318
0.042245
0.0480648
0.0530863
0.0574174
0.0611775
0.0647098
0.0683788
0.0723306
0.0765177
0.0807661
0.0846499
0.0877233
0.0895773
0.0900221
0.0890842
0.0869749
0.0841271
0.0811082
0.0785966
0.077065
0.076758
0.0774471
0.0783788
0.0783424
0.0761606
0.0709112
0.0623214
0.0508206
0.0373901
0.0231581
0.00921973
-0.00375449
-0.0155047
-0.0258893
-0.0347825
-0.0420275
-0.0474283
-0.0510996
-0.0533714
-0.0549292
-0.0565476
-0.0587707
-0.0617028
-0.0651136
-0.0684241
-0.0710304
-0.0725417
-0.0729024
-0.0723707
-0.0713714
-0.0702822
-0.0693938
-0.0688431
-0.0685782
-0.0685814
-0.0690333
-0.0705874
-0.0744712
-0.0822072
-0.0953729
-0.115102
-0.141295
-0.171825
-0.201855
-0.224056
-0.229406
-0.208395
-0.153112
-0.0593656
0.0719662
0.234502
0.417581
0.608051
0.792251
0.957114
1.09026
1.17939
1.21251
1.1796
1.07588
0.905452
0.683411
0.43493
0.190802
-0.0200401
-0.177333
-0.273755
-0.314995
-0.315897
-0.29468
-0.267314
-0.244065
-0.229088
-0.221955
-0.219931
-0.220032
-0.220071
-0.219033
-0.216734
-0.213491
-0.20977
-0.206135
-0.203058
-0.200936
-0.199777
-0.199477
-0.199665
-0.199842
-0.19956
-0.198642
-0.197
-0.194811
-0.192344
-0.189895
-0.187608
-0.185495
-0.183458
-0.18139
-0.179361
-0.177477
-0.17593
-0.174868
-0.174257
-0.173805
-0.173119
-0.171799
-0.169662
-0.166771
-0.163532
-0.160422
-0.157946
-0.156353
-0.155552
-0.15531
-0.155208
-0.154861
-0.154037
-0.152677
-0.15097
-0.149114
-0.147324
-0.14568
-0.144257
-0.143062
-0.142051
-0.141357
-0.141058
-0.141213
-0.14168
-0.142182
-0.142416
-0.14202
-0.141021
-0.139627
-0.138247
-0.1374
-0.13731
-0.137975
-0.139187
-0.140591
-0.142066
-0.143591
-0.145471
-0.147953
-0.151034
-0.15438
-0.157269
-0.158777
-0.158013
-0.154429
-0.147831
-0.138415
-0.126647
-0.113069
-0.0984168
-0.083618
-0.0697242
-0.0579739
-0.0493114
-0.0441804
-0.0422278
-0.0422499
-0.042573
-0.0414791
-0.037804
-0.0311201
-0.0217047
-0.0104769
0.00173086
0.0141671
0.0264215
0.0384552
0.0503107
0.061965
0.0733143
0.0839687
0.0934598
0.101443
0.107639
0.112051
0.114918
0.116603
0.117572
0.118167
0.118554
0.118755
0.118584
0.117926
0.116747
0.115275
0.113908
0.113016
0.112856
0.113383
0.114201
0.114744
0.114448
0.11291
0.110167
0.106506
0.102343
0.0981755
0.0942809
0.0907467
0.0875732
0.0847014
0.0820277
0.0795974
0.0773815
0.0752291
0.0730441
0.070582
0.0677524
0.0646588
0.0615545
0.0588091
0.0567647
0.0556539
0.0554774
0.0560838
0.0571547
0.0582304
0.0588905
0.0586807
0.0572933
0.0546186
0.0508238
0.0462998
0.0415424
0.0370487
0.0331259
0.0298481
0.0271551
0.0248632
0.0227403
0.0207594
0.0188514
0.0170849
0.0155789
0.0143366
0.0133645
0.0125282
0.0117149
0.0108642
0.00996868
0.00918777
0.00867731
0.00860693
0.00901681
0.00980876
0.0107498
0.0115547
0.0119166
0.0116102
0.0105347
0.00871133
0.00633608
0.00373304
0.00135335
-0.000344705
-0.000809279
0.000326685
0.0033394
0.00820372
0.0147376
0.0225688
0.0311354
0.0399013
0.0483971
0.0561816
0.0630271
0.0688482
0.0736182
0.0774118
0.08024
0.0822748
0.0836955
0.0848467
0.0860899
0.0877125
0.0897915
0.0921066
0.0940754
0.0949956
0.0943075
0.0919447
0.0884245
0.0847616
0.0822444
0.0819792
0.0843933
0.0889184
0.094021
0.0975757
0.0975293
0.0925233
0.0823201
0.0677817
0.0506945
0.0330311
0.0165218
0.00229022
-0.00912201
-0.017734
-0.0237672
-0.0275763
-0.0296477
-0.0306058
-0.0311606
-0.031956
-0.033469
-0.0358824
-0.0390273
-0.0424433
-0.0455872
-0.0479204
-0.0491319
-0.0491255
-0.0479245
-0.0457881
-0.0431896
-0.0405948
-0.0386258
-0.0382082
-0.0406093
-0.047437
-0.0601958
-0.0799135
-0.106506
-0.13809
-0.170565
-0.197664
-0.211481
-0.20365
-0.166664
-0.0953667
0.012206
0.154206
0.324693
0.513962
0.708728
0.892166
1.04443
1.14417
1.17217
1.11637
0.976927
0.768762
0.520158
0.267092
0.0444534
-0.122395
-0.223331
-0.26383
-0.260653
-0.234671
-0.204122
-0.180447
-0.167636
-0.164249
-0.166416
-0.170256
-0.173302
-0.174694
-0.174467
-0.173135
-0.171368
-0.169683
-0.168571
-0.16818
-0.168373
-0.168673
-0.168494
-0.167314
-0.164876
-0.161337
-0.157136
-0.152858
-0.14895
-0.145642
-0.142967
-0.140747
-0.138837
-0.137137
-0.135769
-0.134889
-0.134681
-0.13516
-0.1362
-0.13742
-0.138419
-0.138864
-0.138522
-0.13737
-0.135479
-0.133003
-0.130066
-0.126833
-0.123573
-0.120621
-0.118359
-0.117106
-0.116951
-0.117678
-0.118813
-0.119799
-0.120087
-0.119522
-0.118222
-0.116664
-0.115399
-0.114871
-0.115292
-0.116576
-0.118353
-0.120023
-0.12117
-0.121459
-0.120833
-0.119485
-0.117783
-0.116097
-0.114765
-0.114048
-0.113991
-0.114585
-0.115797
-0.117566
-0.119837
-0.122426
-0.125075
-0.127452
-0.129153
-0.129681
-0.128591
-0.1254
-0.119673
-0.111162
-0.099825
-0.0859284
-0.0699676
-0.0527606
-0.0351084
-0.0177592
-0.00123685
0.0141481
0.0282742
0.0411292
0.0525984
0.0626851
0.0714034
0.0788613
0.0852782
0.0909754
0.0962332
0.101127
0.10552
0.109132
0.111658
0.112928
0.113077
0.112407
0.111386
0.110355
0.109442
0.108569
0.107567
0.106267
0.104646
0.102842
0.101088
0.0997003
0.0987879
0.0982726
0.097979
0.0975598
0.0966955
0.0950929
0.0927206
0.0896903
0.0863539
0.0831014
0.0803196
0.0781925
0.0767111
0.0755987
0.0745179
0.0731059
0.0711756
0.0686942
0.0658568
0.0629008
0.0600749
0.057471
0.0550825
0.0528081
0.0505436
0.0480176
0.0451312
0.041823
0.0381692
0.0344538
0.0309582
0.028026
0.0257825
0.0241979
0.0229996
0.0218908
0.0206263
0.0191591
0.0175844
0.0161269
0.014901
0.0139678
0.0132012
0.0123923
0.0113394
0.00996015
0.00825437
0.00639462
0.00461543
0.00320357
0.00235887
0.00230133
0.00301259
0.00441229
0.00624975
0.00819807
0.00990708
0.0111338
0.0117681
0.0118188
0.0114928
0.0110178
0.0106812
0.0108229
0.0117328
0.0137123
0.0169615
0.0215093
0.0271845
0.0335662
0.0400529
0.0460951
0.0511891
0.0552311
0.0585398
0.0616878
0.06538
0.0701777
0.0761798
0.0828743
0.0893422
0.0943595
0.0969709
0.0969188
0.094814
0.0919668
0.0899819
0.0902071
0.0930286
0.0976006
0.102004
0.103855
0.100983
0.0922973
0.0779863
0.0595559
0.039237
0.0192316
0.00131015
-0.0136597
-0.025513
-0.0344912
-0.0409004
-0.0450988
-0.0473402
-0.0480239
-0.047759
-0.0472108
-0.0470213
-0.0476158
-0.0491435
-0.0513992
-0.0539678
-0.0565402
-0.0588576
-0.0608733
-0.062493
-0.0636093
-0.0640304
-0.0635391
-0.062037
-0.0598302
-0.0578901
-0.0578958
-0.0619975
-0.0721966
-0.0898321
-0.115037
-0.146089
-0.179104
-0.208097
-0.225165
-0.220841
-0.184871
-0.107981
0.0150946
0.18208
0.380082
0.584487
0.761912
0.87716
0.903028
0.829059
0.666411
0.445996
0.210052
0.000215053
-0.153848
-0.240719
-0.266879
-0.251004
-0.215543
-0.179249
-0.152875
-0.139174
-0.135551
-0.137391
-0.140665
-0.143095
-0.144116
-0.14418
-0.143952
-0.143729
-0.143621
-0.143453
-0.14295
-0.141942
-0.140392
-0.138349
-0.136044
-0.133662
-0.131409
-0.129469
-0.127836
-0.126305
-0.124656
-0.12251
-0.119631
-0.115928
-0.111548
-0.106886
-0.102428
-0.0985979
-0.0956581
-0.0936166
-0.0921807
-0.0909416
-0.0894803
-0.0876014
-0.085257
-0.0826904
-0.0802054
-0.0780421
-0.076337
-0.075007
-0.0738676
-0.0727202
-0.0714068
-0.0699228
-0.0683433
-0.0667639
-0.0652772
-0.0639764
-0.0628134
-0.0617579
-0.0608187
-0.0599669
-0.0592021
-0.0585794
-0.0580637
-0.0575897
-0.0571164
-0.0566239
-0.0560479
-0.0554041
-0.0547015
-0.0539505
-0.0531837
-0.052377
-0.0514611
-0.0504815
-0.0494885
-0.0485912
-0.0479461
-0.0476761
-0.0478525
-0.0485567
-0.0497525
-0.051295
-0.0529968
-0.0545907
-0.055593
-0.0554314
-0.0534847
-0.0493062
-0.0428396
-0.0343699
-0.0246531
-0.014498
-0.00465586
0.00436742
0.0124138
0.0196138
0.0262361
0.0325744
0.0387934
0.0450205
0.0513083
0.0576588
0.0640294
0.0702944
0.0762623
0.0817147
0.0864397
0.0901823
0.0927743
0.0942075
0.0946002
0.0942656
0.0935715
0.0928352
0.092327
0.0919373
0.0914749
0.090563
0.0887811
0.0859684
0.0821663
0.0776748
0.0730405
0.0688753
0.0657153
0.0638129
0.0631937
0.0635191
0.0642655
0.0649486
0.0651792
0.0648344
0.0639351
0.062673
0.0612407
0.0597049
0.0580433
0.0561407
0.0539113
0.0514143
0.048727
0.0460142
0.0432765
0.0404298
0.0372874
0.0336425
0.0294017
0.0247723
0.0202173
0.0162947
0.0135391
0.0122693
0.0123653
0.0134617
0.0149538
0.0161976
0.0168253
0.016652
0.0158368
0.0146554
0.0133533
0.0120703
0.0107064
0.0091667
0.00732932
0.00533352
0.00335047
0.00170984
0.000585472
-7.67554e-5
-0.00048111
-0.000948414
-0.00167581
-0.00269892
-0.00386032
-0.00490685
-0.00563365
-0.00601683
-0.00616075
-0.00623949
-0.0063596
-0.00654287
-0.00671603
-0.00675566
-0.00661848
-0.00638472
-0.00620035
-0.00615806
-0.00619448
-0.00613736
-0.00563561
-0.00438283
-0.00214703
0.000983708
0.00491159
0.00953714
0.0147023
0.0203937
0.0266049
0.0332682
0.0403497
0.047749
0.0553813
0.0631608
0.0709794
0.0785042
0.0852835
0.090739
0.0942583
0.0955885
0.0948491
0.0927224
0.0902899
0.0886398
0.088717
0.0909428
0.0951032
0.100162
0.104477
0.106377
0.104439
0.0979633
0.0871983
0.0731135
0.0571201
0.0406288
0.0247199
0.0100321
-0.00310802
-0.0144438
-0.0237263
-0.0307079
-0.0353372
-0.0379501
-0.0390579
-0.0394948
-0.0398891
-0.0405929
-0.0417306
-0.0431877
-0.0447094
-0.0461596
-0.0474862
-0.0486923
-0.0497416
-0.0506379
-0.0514004
-0.0521142
-0.0529152
-0.0543812
-0.0575116
-0.0637381
-0.0749071
-0.0926412
-0.117898
-0.150023
-0.185889
-0.219363
-0.241346
-0.240284
-0.203977
-0.122192
0.0095087
0.186083
0.390677
0.595222
0.764707
0.865419
0.874185
0.785967
0.616624
0.399063
0.174307
-0.0199796
-0.159055
-0.235473
-0.25764
-0.243659
-0.213568
-0.183213
-0.161097
-0.148989
-0.144469
-0.143931
-0.144406
-0.144401
-0.143651
-0.142458
-0.141155
-0.139827
-0.138344
-0.136632
-0.134671
-0.132557
-0.130531
-0.128832
-0.127631
-0.126973
-0.126741
-0.126708
-0.126585
-0.126176
-0.125327
-0.124023
-0.122341
-0.120373
-0.11833
-0.116325
-0.1145
-0.112801
-0.111117
-0.109242
-0.106958
-0.104191
-0.100999
-0.0976333
-0.0943964
-0.09156
-0.0892496
-0.0875077
-0.0862187
-0.0851956
-0.0843235
-0.0834606
-0.0825847
-0.0816355
-0.0806511
-0.0796189
-0.0785696
-0.0775075
-0.0764001
-0.0751591
-0.073584
-0.0716377
-0.0693109
-0.0667021
-0.0640669
-0.0615614
-0.0593212
-0.0574032
-0.0557701
-0.0544123
-0.0534565
-0.053054
-0.0533214
-0.0543063
-0.0558106
-0.057504
-0.0591174
-0.0604715
-0.0615809
-0.0627942
-0.0645824
-0.0672926
-0.0710538
-0.0755465
-0.0800245
-0.0834701
-0.0848993
-0.0834276
-0.078626
-0.0706555
-0.0599965
-0.0474618
-0.0340294
-0.0205198
-0.00768295
0.00412743
0.0148023
0.0244039
0.0331831
0.0413075
0.0487206
0.0552544
0.0607509
0.065088
0.0682281
0.0704604
0.0721793
0.0736926
0.0752612
0.0769421
0.0785929
0.0800275
0.0810634
0.0815571
0.0815087
0.0810439
0.0803659
0.0796437
0.0790569
0.0785503
0.0779885
0.0770769
0.0755683
0.0733824
0.0706435
0.0677593
0.0653092
0.0637221
0.0631666
0.0634009
0.0639136
0.063961
0.0629662
0.0605939
0.0568315
0.0519315
0.0464472
0.040869
0.0358296
0.0317996
0.0288969
0.0270575
0.025831
0.0246267
0.0229383
0.0206518
0.0180784
0.0158266
0.0145052
0.0144417
0.0153636
0.0165925
0.0172076
0.0165678
0.0143747
0.0108879
0.00672927
0.00259769
-0.00105758
-0.00388966
-0.00585576
-0.00703246
-0.00758665
-0.00764091
-0.00752709
-0.00760124
-0.00809402
-0.00932053
-0.011235
-0.0135349
-0.0157222
-0.0172933
-0.017971
-0.0178479
-0.0173296
-0.017038
-0.0175313
-0.0190276
-0.0212367
-0.0235466
-0.0251257
-0.0252777
-0.0238204
-0.0210604
-0.0176865
-0.0146411
-0.0126781
-0.0121799
-0.0131872
-0.0153571
-0.0181239
-0.0208559
-0.0230229
-0.0240576
-0.0237307
-0.0219767
-0.0189922
-0.0151139
-0.0107373
-0.00612438
-0.00153299
0.00292774
0.00726079
0.0115197
0.0158177
0.0203317
0.0253606
0.0311644
0.0378067
0.0451255
0.0526518
0.0598383
0.0662441
0.0715888
0.0758959
0.0791873
0.0815244
0.0827824
0.0827742
0.0813214
0.0787049
0.0756252
0.0731292
0.0722587
0.0738144
0.0778053
0.0834087
0.0890806
0.0929871
0.0934356
0.0893199
0.0803297
0.0669806
0.0501221
0.0311694
0.0114829
-0.00754908
-0.0247259
-0.0391587
-0.050276
-0.0579879
-0.0625703
-0.0646618
-0.0651273
-0.0648457
-0.0644452
-0.064396
-0.0649064
-0.0659025
-0.0671086
-0.0680878
-0.0683742
-0.0674559
-0.0651137
-0.0615365
-0.057231
-0.0530712
-0.0502685
-0.0503236
-0.0548242
-0.0654797
-0.083541
-0.109494
-0.142146
-0.177782
-0.209738
-0.228765
-0.2243
-0.186581
-0.108783
0.0107579
0.167814
0.352693
0.551963
0.750665
0.933969
1.08782
1.199
1.25498
1.24528
1.16394
1.01259
0.802966
0.556963
0.303343
0.0720115
-0.113038
-0.238971
-0.305789
-0.324286
-0.311284
-0.284039
-0.255918
-0.234413
-0.221502
-0.215804
-0.214503
-0.215197
-0.216339
-0.217243
-0.217682
-0.217526
-0.216632
-0.214962
-0.212659
-0.210012
-0.207371
-0.204973
-0.202922
-0.201187
-0.19965
-0.198329
-0.197314
-0.196702
-0.196565
-0.196703
-0.196782
-0.196348
-0.194972
-0.192487
-0.189024
-0.184949
-0.180756
-0.176868
-0.173506
-0.170573
-0.167906
-0.165246
-0.162576
-0.160019
-0.157857
-0.156422
-0.156018
-0.156654
-0.158128
-0.160012
-0.161801
-0.16306
-0.16348
-0.16303
-0.161808
-0.160085
-0.158061
-0.155946
-0.153813
-0.15162
-0.149445
-0.147386
-0.145546
-0.144035
-0.142945
-0.142315
-0.142075
-0.142252
-0.142854
-0.14394
-0.145593
-0.147915
-0.150904
-0.154523
-0.158726
-0.163311
-0.168117
-0.172931
-0.177475
-0.18139
-0.18421
-0.185487
-0.184763
-0.181571
-0.175637
-0.166869
-0.155219
-0.140834
-0.124038
-0.105254
-0.0851097
-0.0644319
-0.0442082
-0.0254859
-0.00906374
0.00454575
0.01534
0.0238433
0.030977
0.0377087
0.0448918
0.0529162
0.0616824
0.0708161
0.0797478
0.0879514
0.0951759
0.101331
0.106515
0.110856
0.114458
0.117403
0.119659
0.121233
0.122119
0.122348
0.122049
0.121369
0.120368
0.11915
0.117695
0.115961
0.11395
0.111783
0.10964
0.107735
0.106237
0.105082
0.104152
0.103132
0.101665
0.0995807
0.0967945
0.09343
0.0897846
0.0862175
0.0830811
0.0805116
0.078486
0.0767109
0.0748821
0.0726718
0.0700263
0.0670495
0.0641639
0.0617302
0.0599839
0.0589554
0.0583213
0.0575825
0.0562246
0.0538809
0.050367
0.0458447
0.040664
0.0353997
0.0307159
0.0272122
0.0253138
0.0252609
0.0268608
0.029616
0.0326996
0.0352895
0.0365997
0.0362873
0.0343644
0.0313855
0.027996
0.0249539
0.0227863
0.0217945
0.0218061
0.0224161
0.0231035
0.0233762
0.0230219
0.0218875
0.0201126
0.0178696
0.0153161
0.0125692
0.00977919
0.00711515
0.00478836
0.00309146
0.00215977
0.00208264
0.00268228
0.00365687
0.0048741
0.006303
0.00817923
0.0107307
0.014215
0.0185774
0.0235121
0.0285248
0.0332238
0.0373108
0.0408166
0.0439806
0.0470169
0.050122
0.0532719
0.0563511
0.059356
0.0624018
0.0657257
0.0695626
0.0740573
0.0789727
0.0840241
0.0885396
0.091959
0.0938058
0.0938498
0.0922529
0.089628
0.0868973
0.0850788
0.0851168
0.0874113
0.0914093
0.0956682
0.0980741
0.0965086
0.0895687
0.0769802
0.0598159
0.0401501
0.0204215
0.00273912
-0.0115963
-0.0222443
-0.0296004
-0.0345188
-0.0378391
-0.0404016
-0.0427531
-0.0453392
-0.0483421
-0.0517064
-0.0551245
-0.0582921
-0.0609038
-0.0627342
-0.0638665
-0.0645793
-0.0651197
-0.0656114
-0.0658843
-0.0658231
-0.0654343
-0.0649947
-0.065326
-0.067583
-0.0729252
-0.0822728
-0.0961459
-0.1147
-0.137792
-0.164954
-0.19512
-0.225968
-0.253422
-0.271138
-0.270562
-0.241496
-0.173709
-0.0597262
0.101627
0.30167
0.520021
0.725709
0.882589
0.957967
0.93246
0.807286
0.605483
0.366079
0.133285
-0.0558811
-0.180763
-0.239765
-0.2469
-0.223761
-0.191258
-0.16365
-0.146841
-0.140181
-0.13982
-0.141783
-0.143489
-0.144108
-0.143938
-0.14353
-0.143237
-0.143072
-0.142888
-0.142432
-0.141657
-0.140499
-0.139024
-0.137306
-0.135361
-0.133182
-0.130753
-0.128057
-0.125113
-0.122087
-0.119024
-0.116071
-0.113289
-0.11065
-0.108062
-0.105525
-0.10309
-0.100825
-0.0988399
-0.0970828
-0.095483
-0.0938675
-0.0920503
-0.0900568
-0.0879874
-0.0860554
-0.0844349
-0.0831921
-0.0821493
-0.0809821
-0.0793493
-0.0769307
-0.0737519
-0.0701283
-0.0664664
-0.063339
-0.061207
-0.0602583
-0.0603732
-0.0611899
-0.0623279
-0.0633457
-0.0639971
-0.0641434
-0.0637625
-0.0629803
-0.0618787
-0.0605737
-0.0592495
-0.0580374
-0.0570424
-0.0563904
-0.0561055
-0.0561458
-0.0564449
-0.0568983
-0.0574303
-0.0580755
-0.0588729
-0.0598907
-0.0612843
-0.0629861
-0.0649734
-0.0670074
-0.0687534
-0.0698679
-0.0699381
-0.0685099
-0.0652015
-0.0595578
-0.0513696
-0.0406628
-0.0277763
-0.0134865
0.00117821
0.0151453
0.0274458
0.0376425
0.0457443
0.0522515
0.0578626
0.0631374
0.068398
0.0735517
0.0782631
0.0821904
0.085091
0.0869673
0.0881825
0.0891452
0.0902078
0.0915412
0.0930212
0.0943035
0.0950596
0.0948752
0.0935932
0.091376
0.0885149
0.0853251
0.0821997
0.079288
0.0766941
0.0743775
0.0724397
0.0709061
0.0697529
0.0689494
0.0683399
0.067696
0.0667596
0.0652992
0.063271
0.0607773
0.057947
0.0549699
0.0520504
0.0492892
0.0467734
0.0444864
0.0423367
0.0402608
0.0382934
0.0363644
0.0344591
0.0326215
0.0307073
0.0286359
0.0263854
0.0240421
0.021744
0.0197081
0.0181475
0.0171657
0.0167069
0.0165828
0.016555
0.0164352
0.016056
0.0153426
0.0142312
0.012654
0.0106154
0.00818095
0.00545044
0.00268867
0.000192291
-0.00182996
-0.00337272
-0.00452013
-0.00557979
-0.006841
-0.00844071
-0.0103761
-0.0124998
-0.0145675
-0.0164146
-0.01791
-0.0190592
-0.0198653
-0.0203202
-0.0203763
-0.0199853
-0.0191571
-0.017965
-0.0165571
-0.0150432
-0.0134642
-0.0118859
-0.0102321
-0.00840781
-0.00641889
-0.00428941
-0.00198165
0.000582658
0.00363339
0.00750239
0.0124169
0.0183099
0.0248736
0.0314903
0.0374017
0.0420625
0.0452234
0.0471204
0.0483264
0.0495978
0.0516464
0.0549589
0.0596425
0.065483
0.0719107
0.078168
0.0834413
0.0870376
0.0885623
0.0879857
0.0857088
0.0826169
0.0797843
0.0784408
0.0793835
0.0828642
0.088239
0.0940789
0.0983566
0.0990624
0.0947902
0.085034
0.0703623
0.0521016
0.0320196
0.0118276
-0.00707313
-0.0236539
-0.0372588
-0.047489
-0.0541824
-0.057512
-0.0580539
-0.0566112
-0.0542692
-0.0519856
-0.0504058
-0.0498235
-0.0501758
-0.0512264
-0.0527392
-0.0544921
-0.0563339
-0.0581317
-0.0597536
-0.0609488
-0.0614821
-0.061167
-0.0600556
-0.058544
-0.0573738
-0.0575838
-0.0602534
-0.0663259
-0.0762058
-0.0898754
-0.107099
-0.127624
-0.151297
-0.177853
-0.206391
-0.234845
-0.25952
-0.275145
-0.275206
-0.252422
-0.199116
-0.108822
0.0217697
0.189954
0.384374
0.583685
0.758403
0.87638
0.91139
0.851534
0.704507
0.496982
0.267629
0.0564234
-0.106192
-0.206123
-0.246526
-0.243224
-0.216869
-0.185818
-0.161522
-0.147753
-0.142912
-0.143147
-0.144712
-0.145358
-0.144479
-0.142347
-0.13961
-0.136871
-0.134526
-0.13286
-0.132037
-0.131858
-0.132023
-0.131933
-0.131059
-0.129114
-0.126129
-0.122443
-0.118607
-0.115135
-0.11228
-0.109943
-0.107934
-0.105921
-0.103758
-0.101518
-0.0994718
-0.0977649
-0.0965333
-0.0956384
-0.0947367
-0.0935796
-0.0919676
-0.0899057
-0.0876457
-0.0854514
-0.0834986
-0.0819237
-0.0806603
-0.0795549
-0.0784046
-0.0770269
-0.0753131
-0.073227
-0.070862
-0.0683848
-0.0661252
-0.0644751
-0.0636869
-0.0639174
-0.0649697
-0.0665091
-0.0678857
-0.0686725
-0.0686176
-0.0678061
-0.0665418
-0.0651998
-0.0639865
-0.0628573
-0.0615678
-0.0599061
-0.0578953
-0.0557506
-0.0539642
-0.0530416
-0.0532693
-0.0546602
-0.0569397
-0.0597101
-0.0626322
-0.0655038
-0.0683128
-0.0709535
-0.073326
-0.0751083
-0.0759371
-0.0753499
-0.0729633
-0.0685759
-0.0621519
-0.0538874
-0.0443215
-0.0341058
-0.024023
-0.0147255
-0.00649342
0.000799656
0.00769391
0.0148205
0.0226727
0.0313285
0.0404087
0.049269
0.0571808
0.0636747
0.0686743
0.0723649
0.0752025
0.0774633
0.0794109
0.0809888
0.0820562
0.0825387
0.0823085
0.0814544
0.0801314
0.0786125
0.0771673
0.0760919
0.0755786
0.0757331
0.0764345
0.0773484
0.0780243
0.0780772
0.0772969
0.0758137
0.0740078
0.0723492
0.0712721
0.0708808
0.0709747
0.0711226
0.0707668
0.0695098
0.0670969
0.0635927
0.0593313
0.0547225
0.0501381
0.0459043
0.0421792
0.0389918
0.0364097
0.0343816
0.0329322
0.0320168
0.0315487
0.0314549
0.0315074
0.0314733
0.0311731
0.030427
0.0291272
0.0272182
0.0246904
0.0216304
0.0182131
0.014684
0.0112145
0.00793968
0.004857
0.00195951
-0.000819709
-0.00350167
-0.00606549
-0.00851511
-0.0107731
-0.0128857
-0.0149669
-0.0169351
-0.0186819
-0.0199873
-0.0205162
-0.0200776
-0.018648
-0.0165153
-0.0142005
-0.0123136
-0.0113689
-0.011698
-0.0133815
-0.016187
-0.0196513
-0.0232881
-0.0264206
-0.0285002
-0.0292067
-0.0284522
-0.0264689
-0.023818
-0.0211512
-0.0190526
-0.0179034
-0.0177488
-0.0182777
-0.0190581
-0.0195096
-0.0191421
-0.0176426
-0.0149907
-0.011327
-0.00696427
-0.00214137
0.00298314
0.00839825
0.0142082
0.0205481
0.0274173
0.0346773
0.0421205
0.0494615
0.056368
0.0626363
0.068123
0.0727728
0.0765306
0.0794338
0.0814665
0.0826072
0.0828898
0.0824519
0.0815213
0.0803696
0.0793927
0.0789051
0.0791152
0.0799352
0.081081
0.0821157
0.0827586
0.082861
0.0827322
0.0828858
0.0838528
0.0857017
0.0878793
0.0890974
0.0878208
0.0827577
0.0733692
0.0599876
0.043839
0.0264241
0.00922215
-0.00681353
-0.0211896
-0.03382
-0.0446785
-0.0537183
-0.0608924
-0.0661845
-0.0697093
-0.0716721
-0.0723283
-0.0719032
-0.0706645
-0.0687351
-0.0664397
-0.0641742
-0.062406
-0.0616123
-0.0620487
-0.063542
-0.0655755
-0.0675059
-0.068779
-0.0691596
-0.0690605
-0.0696687
-0.0728918
-0.0808347
-0.0953578
-0.117546
-0.147067
-0.181466
-0.215871
-0.243211
-0.254479
-0.239514
-0.188436
-0.0938915
0.046165
0.225464
0.427478
0.625855
0.788071
0.882675
0.887668
0.797699
0.627037
0.406771
0.176652
-0.0256876
-0.17423
-0.259515
-0.287967
-0.276587
-0.245559
-0.21168
-0.184949
-0.168507
-0.160784
-0.158372
-0.158128
-0.158149
-0.157713
-0.156702
-0.155148
-0.153069
-0.150532
-0.147857
-0.145407
-0.1437
-0.143061
-0.143617
-0.14515
-0.147103
-0.148775
-0.149461
-0.148608
-0.145881
-0.141379
-0.135442
-0.128766
-0.122181
-0.116458
-0.112175
-0.109704
-0.108987
-0.109648
-0.111024
-0.112283
-0.112687
-0.111713
-0.109324
-0.105841
-0.101944
-0.0984342
-0.0958938
-0.0946017
-0.0943391
-0.0946106
-0.0947886
-0.0943831
-0.093209
-0.0913927
-0.0893635
-0.0875448
-0.0864273
-0.0863034
-0.087273
-0.0892006
-0.0917346
-0.0943286
-0.0963741
-0.0972451
-0.0965677
-0.0943289
-0.0907971
-0.08648
-0.0820296
-0.0780276
-0.0747476
-0.0723334
-0.07084
-0.0702886
-0.0707584
-0.0723397
-0.0750857
-0.078929
-0.0835217
-0.0884576
-0.0932764
-0.0975911
-0.101118
-0.103697
-0.105107
-0.105122
-0.103415
-0.0997434
-0.0939981
-0.086418
-0.0774125
-0.0676246
-0.0578098
-0.0486897
-0.0407431
-0.0342313
-0.029134
-0.0251647
-0.021776
-0.0182653
-0.0140128
-0.00856791
-0.00160057
0.00694141
0.0167902
0.0275573
0.0386607
0.0494113
0.0592027
0.0676448
0.0745941
0.0802745
0.0850572
0.0894248
0.0936549
0.0978789
0.101836
0.105058
0.107142
0.107772
0.106943
0.104886
0.102067
0.0989796
0.096095
0.0936018
0.0916109
0.0901332
0.0890292
0.0882093
0.0875524
0.086921
0.0861848
0.0852557
0.0840439
0.0825472
0.0808597
0.0791488
0.0776572
0.0765501
0.0760098
0.0759605
0.0762643
0.0765772
0.0765145
0.075674
0.0738129
0.0709867
0.0673906
0.0634819
0.05968
0.056446
0.0539653
0.0522387
0.0510239
0.0498166
0.0481548
0.0455841
0.0419439
0.0374239
0.0325732
0.0282483
0.0252604
0.0241101
0.0246656
0.0262927
0.0278602
0.0283264
0.0269046
0.0235963
0.0189223
0.0139199
0.00956978
0.00651547
0.0049099
0.00438123
0.00425237
0.00387261
0.00283545
0.00112907
-0.000949052
-0.0028943
-0.00434418
-0.00502728
-0.0050112
-0.00453941
-0.00384255
-0.00316546
-0.00256604
-0.00210145
-0.00171217
-0.00150163
-0.00144627
-0.00164542
-0.00208921
-0.00277995
-0.00373817
-0.00503293
-0.00670791
-0.00870161
-0.0108843
-0.0129625
-0.0145198
-0.0152166
-0.0148652
-0.0135667
-0.0116447
-0.00952194
-0.00748268
-0.00562665
-0.00368358
-0.00125752
0.00201038
0.0063212
0.0115482
0.0173031
0.0231274
0.028576
0.0333999
0.0376215
0.0414391
0.0451151
0.0489297
0.0530692
0.057662
0.0626973
0.0680849
0.0735757
0.0788478
0.0834428
0.0868874
0.0888157
0.0889459
0.0873914
0.0846025
0.0813365
0.0784861
0.0768476
0.0770496
0.0791708
0.0826831
0.0865649
0.0892255
0.0891749
0.0851913
0.0767051
0.0639973
0.0481309
0.0306204
0.0130944
-0.00315783
-0.0172697
-0.0289296
-0.0381016
-0.0450249
-0.0499442
-0.0532716
-0.0554201
-0.056748
-0.0576025
-0.0582474
-0.058775
-0.0593358
-0.0599744
-0.0608359
-0.0619914
-0.0634142
-0.0650239
-0.0664393
-0.0672742
-0.0672253
-0.0662395
-0.0646277
-0.0631122
-0.0628204
-0.0651466
-0.0714767
-0.0830903
-0.100726
-0.124389
-0.153015
-0.183969
-0.212462
-0.231895
-0.233963
-0.209434
-0.149284
-0.0469064
0.0997292
0.2855
0.496658
0.710826
0.89946
1.03304
1.08751
1.05062
0.925628
0.731261
0.497275
0.257314
0.0416001
-0.128856
-0.244744
-0.307644
-0.327079
-0.316307
-0.288665
-0.255225
-0.223806
-0.198757
-0.181424
-0.171056
-0.165985
-0.164244
-0.164279
-0.164992
-0.165816
-0.166364
-0.166265
-0.165202
-0.162973
-0.159674
-0.155597
-0.151324
-0.147438
-0.144282
-0.141968
-0.140253
-0.138798
-0.137283
-0.135495
-0.133447
-0.131351
-0.129398
-0.127721
-0.126329
-0.125087
-0.123781
-0.122229
-0.120311
-0.118119
-0.115773
-0.113441
-0.111303
-0.109454
-0.10809
-0.107245
-0.106904
-0.106948
-0.107097
-0.107082
-0.106606
-0.105498
-0.103861
-0.101825
-0.0996602
-0.0975561
-0.0957031
-0.094014
-0.0924692
-0.0910143
-0.0896104
-0.0882273
-0.0869155
-0.085734
-0.0848515
-0.0843206
-0.0842619
-0.0847042
-0.0855426
-0.0866277
-0.0876299
-0.0883894
-0.088698
-0.088671
-0.0886047
-0.0888068
-0.0896165
-0.0911755
-0.0933326
-0.0957693
-0.0980418
-0.09971
-0.100397
-0.0999152
-0.0980397
-0.0945814
-0.0893367
-0.0822191
-0.0733812
-0.0631888
-0.0523246
-0.0416897
-0.0321452
-0.0244582
-0.0190265
-0.0159438
-0.0148715
-0.0151493
-0.0160564
-0.0167439
-0.0164502
-0.0146122
-0.0108902
-0.00523018
0.00223508
0.0111673
0.0211967
0.0319788
0.0432332
0.0546887
0.0660822
0.0771125
0.0874016
0.0965587
0.104367
0.11073
0.115807
0.119884
0.123198
0.125997
0.128257
0.129837
0.130495
0.130032
0.128449
0.125937
0.122897
0.119763
0.116914
0.114478
0.112386
0.110485
0.108628
0.106781
0.105037
0.103596
0.102632
0.102124
0.101925
0.101768
0.101455
0.100843
0.0998903
0.0986489
0.0971606
0.0953835
0.0931991
0.0905419
0.0874671
0.0841544
0.0808846
0.0779491
0.0754163
0.0732124
0.0709431
0.0682761
0.0649867
0.0610364
0.0567347
0.0525492
0.0490182
0.0465713
0.0453255
0.045145
0.0457708
0.0467846
0.0477963
0.0485889
0.0491292
0.0494803
0.0496575
0.0496438
0.0492887
0.0484266
0.0469003
0.044745
0.0422068
0.0395558
0.0371542
0.0350728
0.0332677
0.0314499
0.0293576
0.0269056
0.0241599
0.0214348
0.0191141
0.0174425
0.0165723
0.0164343
0.0167246
0.0172513
0.0177854
0.0182353
0.0186294
0.0190214
0.0196207
0.0206525
0.0224295
0.0250516
0.0286036
0.0329299
0.0377269
0.0428544
0.0480836
0.053334
0.0585555
0.0637818
0.0689455
0.0740512
0.0792017
0.0845716
0.0903049
0.0964346
0.102689
0.108479
0.113081
0.115732
0.116105
0.114312
0.110999
0.107206
0.104113
0.102694
0.103607
0.106906
0.111802
0.116927
0.120523
0.120749
0.116372
0.106981
0.0930422
0.0758147
0.0569133
0.0378939
0.0199828
0.00397575
-0.00960382
-0.0203617
-0.0280802
-0.0326734
-0.0344782
-0.0341764
-0.0327413
-0.0310748
-0.0299765
-0.02983
-0.0306899
-0.0323101
-0.0343972
-0.0366303
-0.0386822
-0.0403274
-0.0413771
-0.0416516
-0.0411054
-0.0399291
-0.0384198
-0.0371462
-0.0368685
-0.0386711
-0.0439216
-0.0539836
-0.070061
-0.0928696
-0.122065
-0.155577
-0.188936
-0.215084
-0.224361
-0.20527
-0.146198
-0.0385776
0.119152
0.317972
0.536178
0.741175
0.895306
0.965427
0.932995
0.800896
0.594055
0.35312
0.122701
-0.0610326
-0.179151
-0.232053
-0.235224
-0.210888
-0.179668
-0.154951
-0.141582
-0.138066
-0.140216
-0.14398
-0.146863
-0.148119
-0.147977
-0.146993
-0.14557
-0.14399
-0.142423
-0.141095
-0.140127
-0.139411
-0.13867
-0.13755
-0.135732
-0.133227
-0.130296
-0.127311
-0.1247
-0.122788
-0.121444
-0.120466
-0.119428
-0.118026
-0.116095
-0.113743
-0.111161
-0.108636
-0.106332
-0.10425
-0.10226
-0.100211
-0.0979745
-0.0955685
-0.0931749
-0.0909935
-0.0892261
-0.0879949
-0.0873468
-0.0871943
-0.0874582
-0.0879199
-0.0883105
-0.0884539
-0.0880709
-0.0869819
-0.0852154
-0.0828691
-0.0801909
-0.077501
-0.0751469
-0.0733709
-0.0723608
-0.0721232
-0.0726066
-0.0736327
-0.0749243
-0.07616
-0.0770266
-0.0772901
-0.0768215
-0.0757273
-0.0741984
-0.0724828
-0.0708186
-0.0692866
-0.0679193
-0.0666892
-0.0656101
-0.0647444
-0.0643516
-0.064586
-0.0654769
-0.0668575
-0.068422
-0.0696373
-0.0698756
-0.0685026
-0.0650046
-0.0590859
-0.0507395
-0.0404081
-0.0289174
-0.0172181
-0.00629142
0.00334468
0.0115573
0.0186537
0.025133
0.0315702
0.0382434
0.045101
0.0519468
0.0585282
0.0647102
0.070425
0.0757946
0.0808462
0.0854119
0.0891865
0.0918409
0.093112
0.0930161
0.091763
0.0897862
0.0875992
0.0855088
0.083724
0.0822558
0.0809159
0.0796563
0.0783143
0.0768036
0.0751468
0.0734928
0.0719016
0.0706124
0.0698088
0.0696193
0.0699897
0.0706425
0.0711662
0.071018
0.0697476
0.0671797
0.0635489
0.0594179
0.0555158
0.0524838
0.0506436
0.0498216
0.0493918
0.0486469
0.0469023
0.0438729
0.0397211
0.0349789
0.0303232
0.0263248
0.0233618
0.0214062
0.020265
0.0196048
0.0191426
0.0187442
0.0183889
0.0181131
0.0178677
0.0174991
0.0167972
0.0155044
0.0134352
0.0105281
0.00689992
0.0027832
-0.00145467
-0.00547859
-0.00886319
-0.0113589
-0.0127414
-0.0130278
-0.012344
-0.0110909
-0.00983049
-0.00905573
-0.00923035
-0.0104309
-0.0123991
-0.0146436
-0.0164623
-0.0173053
-0.0167909
-0.0149456
-0.0120753
-0.0087902
-0.00583926
-0.00398739
-0.0038552
-0.00564516
-0.00902846
-0.0131522
-0.0167579
-0.0185102
-0.0174336
-0.0131327
-0.00594259
0.0033108
0.0134981
0.0235285
0.0326874
0.0405599
0.0472668
0.0531411
0.0586587
0.0642906
0.0702172
0.0763344
0.0821835
0.0870586
0.090263
0.0914256
0.0905437
0.0881586
0.0849665
0.0815649
0.0782839
0.0752384
0.0724689
0.0702894
0.0694143
0.0706282
0.0744292
0.0802372
0.0863958
0.0903813
0.0896369
0.0825541
0.0690389
0.0506146
0.0298221
0.00937248
-0.00860265
-0.0229712
-0.0337563
-0.0415823
-0.0472586
-0.051515
-0.0548088
-0.0574786
-0.0596933
-0.0616106
-0.0633236
-0.0648684
-0.0662702
-0.0675063
-0.0686179
-0.069528
-0.0701917
-0.0704591
-0.0702201
-0.0693778
-0.0680634
-0.0668694
-0.0670894
-0.0705927
-0.0794425
-0.0954274
-0.119567
-0.15106
-0.186541
-0.219729
-0.241449
-0.240015
-0.202975
-0.119871
0.0140217
0.193647
0.401632
0.608679
0.778359
0.875542
0.876692
0.777699
0.596682
0.36969
0.140366
-0.0524044
-0.184543
-0.250955
-0.262958
-0.24105
-0.206529
-0.175096
-0.154089
-0.143967
-0.141436
-0.142542
-0.144512
-0.146264
-0.14777
-0.149358
-0.151224
-0.153215
-0.154911
-0.155818
-0.155601
-0.154044
-0.151205
-0.147249
-0.142496
-0.137271
-0.131848
-0.126412
-0.121211
-0.116547
-0.112758
-0.110174
-0.108977
-0.109001
-0.109799
-0.110691
-0.110978
-0.110244
-0.108472
-0.106023
-0.103438
-0.101173
-0.0994398
-0.0980673
-0.0967083
-0.0950106
-0.092783
-0.0900395
-0.0870769
-0.0841888
-0.0816495
-0.079544
-0.0778392
-0.0764505
-0.0753299
-0.0743554
-0.0734727
-0.0725298
-0.0713199
-0.0695704
-0.0671248
-0.0640206
-0.0605465
-0.0571873
-0.0543861
-0.0525119
-0.0516079
-0.0514972
-0.05185
-0.0524599
-0.0531964
-0.0541152
-0.0553381
-0.0569261
-0.0588314
-0.0608942
-0.0628426
-0.0645259
-0.0658769
-0.0669584
-0.0678426
-0.0687276
-0.0696685
-0.070681
-0.0715726
-0.0720539
-0.0716113
-0.0695793
-0.0652301
-0.0579936
-0.047813
-0.035052
-0.0207514
-0.00615221
0.00741235
0.0191764
0.0288443
0.0367011
0.0433079
0.0492027
0.0547395
0.0598967
0.0645386
0.0684338
0.071573
0.0740886
0.0761673
0.0780523
0.0797999
0.0812714
0.0822749
0.0824623
0.0817146
0.0800977
0.0778934
0.0755584
0.0735773
0.0722593
0.0716995
0.0716774
0.0718995
0.0720832
0.0720664
0.0718418
0.071622
0.0715326
0.0715902
0.0715667
0.0710446
0.0696393
0.0671132
0.0635474
0.0592
0.0544826
0.0497096
0.0450946
0.0405218
0.0359915
0.0314111
0.0269741
0.0229243
0.0195201
0.0168737
0.0148808
0.0131743
0.0113603
0.0092394
0.00682087
0.0042805
0.00203553
0.000319805
-0.000788062
-0.00149682
-0.0020795
-0.00284233
-0.00383824
-0.00490881
-0.00584146
-0.00632807
-0.00644625
-0.00644841
-0.00689002
-0.00835121
-0.0112079
-0.0153841
-0.0204134
-0.0254597
-0.0296566
-0.0323901
-0.0335196
-0.0332921
-0.032162
-0.0304944
-0.0285873
-0.0264262
-0.0240975
-0.0217489
-0.0197035
-0.0184145
-0.0183075
-0.0194859
-0.0217425
-0.0246207
-0.0275823
-0.0301359
-0.031893
-0.0327768
-0.0328769
-0.032397
-0.0316747
-0.0309392
-0.0302574
-0.0293411
-0.0276831
-0.024604
-0.0196525
-0.0127427
-0.00426992
0.00478045
0.0133573
0.0206903
0.0265008
0.0311361
0.0353968
0.0400737
0.0456302
0.0520106
0.0586127
0.0645632
0.0690708
0.0716257
0.0723216
0.071718
0.0707128
0.07017
0.0708065
0.072693
0.0751833
0.0768615
0.0760429
0.0711741
0.0614707
0.0471386
0.029464
0.0103185
-0.00820364
-0.0244217
-0.0371474
-0.046037
-0.051395
-0.0539227
-0.0545453
-0.0543172
-0.0542424
-0.0551255
-0.0573989
-0.0610154
-0.0656105
-0.0704691
-0.0748097
-0.0778836
-0.0792281
-0.0787827
-0.0768097
-0.0738337
-0.0704001
-0.0669185
-0.0635677
-0.0603944
-0.0575204
-0.0550525
-0.0535435
-0.0540058
-0.0579715
-0.0669657
-0.0824412
-0.105297
-0.135247
-0.169968
-0.204494
-0.230924
-0.238572
-0.214983
-0.148391
-0.0314139
0.134981
0.338165
0.55295
0.745025
0.877883
0.922634
0.866786
0.719102
0.507944
0.273751
0.057586
-0.109763
-0.214313
-0.259317
-0.260219
-0.237154
-0.207802
-0.183298
-0.167657
-0.160017
-0.157559
-0.15762
-0.158606
-0.159968
-0.161492
-0.162753
-0.163101
-0.162048
-0.159365
-0.155543
-0.151433
-0.147915
-0.145538
-0.144329
-0.143763
-0.143059
-0.14159
-0.139106
-0.135832
-0.13221
-0.128802
-0.125922
-0.123608
-0.121761
-0.120207
-0.118857
-0.117713
-0.116833
-0.116308
-0.116152
-0.116325
-0.116765
-0.117341
-0.117849
-0.118116
-0.11792
-0.117007
-0.115164
-0.112321
-0.108609
-0.10452
-0.100688
-0.0977676
-0.0962075
-0.0960324
-0.0968854
-0.0979846
-0.0984964
-0.0978468
-0.0957769
-0.0925751
-0.0888751
-0.0854513
-0.0830631
-0.0821949
-0.0830914
-0.085512
-0.0888872
-0.0925156
-0.0956889
-0.0978836
-0.0989119
-0.0989363
-0.0983958
-0.097781
-0.0975798
-0.0979777
-0.0990534
-0.100732
-0.10289
-0.105421
-0.108272
-0.111376
-0.114678
-0.117938
-0.120734
-0.122333
-0.121776
-0.117933
-0.109876
-0.0971417
-0.0800081
-0.0597196
-0.0381577
-0.0175483
0.000182931
0.0138013
0.0230431
0.0285716
0.0316636
0.0338683
0.0367431
0.0414238
0.0485516
0.0580318
0.0691531
0.080683
0.091195
0.0995318
0.105056
0.107846
0.108544
0.108056
0.107297
0.106735
0.106454
0.106256
0.105889
0.105256
0.104407
0.10361
0.103112
0.103054
0.103384
0.10387
0.104244
0.104182
0.103427
0.10185
0.0993882
0.0961055
0.0922078
0.0880303
0.0840355
0.0805459
0.0777504
0.0755283
0.0735929
0.0715994
0.0692871
0.0666574
0.0639617
0.0615304
0.0596746
0.0585577
0.0581263
0.0580714
0.0580931
0.057897
0.0573997
0.0565667
0.0554036
0.0539577
0.0522069
0.0500673
0.047493
0.0446164
0.041659
0.0388525
0.0363473
0.0341076
0.0319916
0.0298115
0.0274232
0.0248835
0.0224147
0.0203402
0.0188864
0.0181683
0.0180797
0.0183573
