-0.0692034
-0.0707289
-0.0735287
-0.077658
-0.0830061
-0.089724
-0.0984718
-0.110423
-0.126731
-0.147803
-0.172056
-0.195436
-0.211359
-0.211302
-0.18581
-0.126163
-0.026122
0.115744
0.293783
0.493509
0.691534
0.858094
0.962927
0.982713
0.908507
0.749871
0.533652
0.297388
0.0795227
-0.0904242
-0.198328
-0.246234
-0.248483
-0.224778
-0.19337
-0.166483
-0.149346
-0.141691
-0.140448
-0.142141
-0.14439
-0.145918
-0.146363
-0.145681
-0.143964
-0.141483
-0.138599
-0.135783
-0.133518
-0.131967
-0.131102
-0.130519
-0.129871
-0.128875
-0.12759
-0.126279
-0.125254
-0.124771
-0.124864
-0.125265
-0.125542
-0.125219
-0.12389
-0.121402
-0.117822
-0.113392
-0.108454
-0.103383
-0.0984902
-0.0940494
-0.0902033
-0.0870701
-0.084765
-0.0833536
-0.0827927
-0.0829663
-0.0835292
-0.0840688
-0.0841474
-0.0835581
-0.0823079
-0.080755
-0.0794762
-0.0790462
-0.0798267
-0.0818203
-0.084647
-0.0876881
-0.0901281
-0.0913895
-0.0911076
-0.0893059
-0.0862711
-0.0825492
-0.078723
-0.0752521
-0.0724611
-0.0704411
-0.0691035
-0.0683344
-0.0680011
-0.0680367
-0.0684827
-0.0694357
-0.0710678
-0.073527
-0.0769002
-0.081164
-0.0861606
-0.0916737
-0.0974169
-0.102962
-0.107862
-0.111502
-0.113421
-0.113066
-0.110179
-0.104717
-0.0969798
-0.087574
-0.0772916
-0.0669848
-0.0573802
-0.0489012
-0.0415299
-0.0349076
-0.0283867
-0.0212326
-0.012836
-0.00287623
0.00851699
0.0208236
0.0333194
0.0451723
0.0556667
0.0643738
0.0713016
0.0767344
0.0812363
0.0854144
0.0896807
0.0940971
0.0985487
0.102556
0.105782
0.108088
0.109597
0.110762
0.112163
0.114282
0.117205
0.12082
0.124568
0.127907
0.130487
0.132045
0.132682
0.132646
0.132102
0.131095
0.129597
0.127556
0.124913
0.121787
0.118359
0.114818
0.111395
0.108284
0.105548
0.103353
0.101742
0.100745
0.100391
0.100595
0.101251
0.102196
0.103195
0.103931
0.104136
0.103529
0.101926
0.0993881
0.0961204
0.0924072
0.0885416
0.084798
0.0812077
0.0777771
0.0745037
0.07142
0.068635
0.0662436
0.0643089
0.0627286
0.0613301
0.059994
0.0585897
0.0571861
0.0558088
0.0545608
0.0534121
0.0523089
0.0511585
0.0498649
0.0483813
0.0467796
0.0451035
0.0433978
0.0416907
0.040026
0.0384555
0.0369565
0.0356425
0.0345207
0.0337262
0.0332622
0.0331673
0.0333715
0.0336451
0.0337349
0.0334235
0.0325257
0.0310891
0.0292467
0.0271827
0.0250925
0.0231853
0.0214758
0.0200216
0.0188138
0.0178457
0.016969
0.0160473
0.0148981
0.0134154
0.0116125
0.0097658
0.00841923
0.00829042
0.0100854
0.0142506
0.0208798
0.0295178
0.039341
0.0493942
0.0588007
0.067037
0.0739593
0.0797264
0.0846568
0.0890915
0.0932505
0.0969969
0.100153
0.10236
0.103312
0.102771
0.100729
0.097255
0.0925926
0.0871018
0.0812798
0.0757556
0.0713786
0.0688896
0.0687687
0.0707449
0.0737791
0.0762326
0.0762447
0.0724235
0.0642835
0.0523308
0.0379924
0.0229582
0.00880091
-0.00351169
-0.0137076
-0.021921
-0.0285546
-0.0340255
-0.038544
-0.0422128
-0.0450808
-0.0471232
-0.0484325
-0.049157
-0.0495475
-0.0499092
-0.0505286
-0.0516658
-0.0533932
-0.0555225
-0.0576657
-0.0593508
-0.0600778
-0.0595303
-0.057642
-0.054547
-0.0507783
-0.0469496
-0.0439372
-0.0427317
-0.044543
-0.0506991
-0.0624444
-0.0805302
-0.105088
-0.13524
-0.168711
-0.201463
-0.227641
-0.23995
-0.229746
-0.187828
-0.10621
0.0196739
0.187646
0.386126
0.593
0.777613
0.906538
0.95184
0.899909
0.756709
0.547942
0.312489
0.0916524
-0.0817968
-0.191333
-0.238213
-0.237463
-0.210381
-0.176696
-0.14938
-0.133413
-0.127685
-0.128218
-0.130894
-0.1331
-0.134047
-0.133896
-0.133288
-0.132491
-0.13152
-0.130153
-0.128082
-0.125195
-0.12154
-0.117483
-0.113426
-0.109898
-0.107256
-0.105568
-0.104699
-0.104255
-0.103927
-0.103531
-0.103004
-0.102451
-0.101994
-0.101613
-0.101162
-0.10042
-0.0991842
-0.0974026
-0.0950622
-0.0924074
-0.0896428
-0.0870176
-0.0845976
-0.0824077
-0.0803727
-0.0784341
-0.0765052
-0.0746338
-0.0729508
-0.0715404
-0.0705723
-0.0700885
-0.0700845
-0.0705508
-0.0714002
-0.0725216
-0.0737709
-0.074984
-0.0759349
-0.0764211
-0.076367
-0.0757837
-0.0748245
-0.073645
-0.0723995
-0.0709736
-0.069196
-0.0668999
-0.0641673
-0.0613586
-0.0591177
-0.0580638
-0.0585791
-0.0605263
-0.0633207
-0.0662812
-0.0688426
-0.0708786
-0.0727292
-0.0748552
-0.0776908
-0.0812104
-0.0851418
-0.088814
-0.0915891
-0.092861
-0.0921961
-0.0894102
-0.0843586
-0.0771911
-0.0683081
-0.058475
-0.0486846
-0.0399749
-0.033125
-0.0283991
-0.025431
-0.0233605
-0.021164
-0.01787
-0.012947
-0.00624778
0.00199976
0.0113831
0.0214669
0.0319057
0.0423626
0.0524627
0.0619404
0.0703204
0.0772725
0.0825437
0.0860117
0.0878687
0.0884361
0.0881971
0.0877124
0.0873003
0.0871104
0.0870443
0.0868174
0.0861193
0.0847823
0.0828939
0.080713
0.0785806
0.076849
0.0756604
0.0749734
0.0745208
0.0741363
0.0735987
0.072917
0.0721532
0.0713517
0.0705578
0.0696855
0.0685906
0.0672342
0.0656378
0.0638661
0.0620457
0.0601021
0.0580241
0.05564
0.0528425
0.0496922
0.0463759
0.0431998
0.0403649
0.0380021
0.0360393
0.0341985
0.0322006
0.0297583
0.0267944
0.0233633
0.0197123
0.0162431
0.0133459
0.0113269
0.0102642
0.0100538
0.0104142
0.0109819
0.0113905
0.0114505
0.0110763
0.0103948
0.00948339
0.00849422
0.00748454
0.00634443
0.00496118
0.0032492
0.00118572
-0.00105279
-0.00327465
-0.00521899
-0.00678501
-0.00791702
-0.00872548
-0.00939172
-0.0100598
-0.0108247
-0.0116009
-0.0123588
-0.0129404
-0.0132917
-0.0134241
-0.0133495
-0.0131086
-0.0126679
-0.0120125
-0.011214
-0.0104309
-0.00990868
-0.00976524
-0.00981123
-0.00948107
-0.00801556
-0.00446699
0.00155534
0.00995809
0.0199172
0.0302353
0.0395841
0.0471494
0.0526941
0.0567163
0.0602498
0.064299
0.0697278
0.0766987
0.0847032
0.0926889
0.0992607
0.103238
0.103722
0.100627
0.0945
0.0865625
0.0784484
0.0717938
0.0679597
0.0674827
0.0699301
0.0736509
0.0764619
0.0759761
0.0704452
0.0592337
0.0430895
0.023741
0.00367629
-0.0146966
-0.0295474
-0.0398375
-0.0455337
-0.0473897
-0.046548
-0.0444411
-0.0423901
-0.041296
-0.0415363
-0.0430335
-0.045417
-0.04817
-0.0508715
-0.0532358
-0.0551999
-0.0568038
-0.0579803
-0.0585545
-0.0584303
-0.0576526
-0.0566349
-0.0561854
-0.0574327
-0.0614725
-0.0690962
-0.0805486
-0.0956737
-0.11415
-0.135705
-0.15991
-0.186187
-0.212881
-0.236708
-0.252823
-0.25475
-0.23485
-0.184927
-0.0978104
0.0303342
0.19686
0.389816
0.586847
0.757139
0.867694
0.892373
0.820715
0.663126
0.449276
0.220124
0.0161162
-0.133901
-0.219034
-0.245976
-0.233166
-0.202312
-0.171194
-0.149568
-0.139525
-0.13825
-0.141392
-0.145295
-0.148017
-0.149033
-0.14864
-0.147266
-0.145213
-0.142725
-0.139946
-0.137074
-0.134322
-0.131911
-0.130004
-0.128728
-0.12814
-0.128188
-0.128568
-0.128881
-0.128617
-0.127363
-0.124914
-0.121426
-0.117385
-0.113503
-0.11041
-0.108615
-0.108101
-0.108498
-0.109123
-0.109165
-0.107941
-0.105138
-0.100862
-0.0956109
-0.0902074
-0.0855292
-0.0823064
-0.0808571
-0.0809471
-0.0820797
-0.0834757
-0.084396
-0.0845396
-0.0838722
-0.0826489
-0.0812701
-0.0800233
-0.0789929
-0.0780557
-0.0770462
-0.0757797
-0.0742221
-0.0724475
-0.0706991
-0.0692156
-0.0682849
-0.0680817
-0.0686657
-0.0698687
-0.0713276
-0.0726153
-0.073417
-0.0735857
-0.0733086
-0.073081
-0.0732332
-0.0740948
-0.0757555
-0.0780096
-0.080581
-0.0832804
-0.0858724
-0.088163
-0.0898275
-0.0904481
-0.089461
-0.0863572
-0.0806915
-0.0723784
-0.061575
-0.0486771
-0.034358
-0.0194094
-0.00456801
0.00944956
0.0221625
0.0333388
0.0430167
0.0514045
0.058687
0.0650555
0.0705048
0.0749441
0.0782855
0.0804957
0.081659
0.0819204
0.0814775
0.0804706
0.0790606
0.0773712
0.0756414
0.0741889
0.0731832
0.0727464
0.0727432
0.0728037
0.072567
0.0717845
0.0704107
0.0686593
0.0668312
0.0652619
0.0641308
0.0634341
0.0630802
0.0629444
0.0627443
0.0622851
0.0613271
0.059646
0.0570932
0.053732
0.0498118
0.0457883
0.0421226
0.039233
0.0372827
0.0360422
0.0351581
0.0340643
0.0323636
0.0298181
0.0265033
0.0227901
0.0189882
0.0154151
0.0122761
0.00952995
0.00705908
0.00463905
0.00222508
-0.000179977
-0.00235189
-0.00402413
-0.00499521
-0.00527914
-0.00518761
-0.00518964
-0.00583209
-0.00750059
-0.0102762
-0.0139198
-0.0180013
-0.0220122
-0.0256144
-0.0286364
-0.0311245
-0.0331684
-0.0347795
-0.0360597
-0.0368337
-0.0369012
-0.036072
-0.0342625
-0.0315302
-0.0281613
-0.0246427
-0.0215343
-0.0192174
-0.0178878
-0.0174491
-0.0174585
-0.0173187
-0.016462
-0.0144916
-0.0111316
-0.00645282
-0.000706955
0.00570434
0.0122325
0.0182196
0.0231119
0.0265794
0.0287047
0.0300766
0.031698
0.0346516
0.0396946
0.0469415
0.0556741
0.0644753
0.0718129
0.0763975
0.077698
0.0759317
0.0719354
0.0668554
0.0616729
0.0570307
0.0532717
0.0506257
0.0492069
0.0491405
0.0502125
0.0516504
0.0521129
0.0500427
0.0439248
0.0330612
0.0178237
-0.000324788
-0.0192543
-0.0366742
-0.0508171
-0.0607172
-0.0663056
-0.0680631
-0.0669981
-0.0642469
-0.0610172
-0.0583396
-0.0570028
-0.0574278
-0.0595769
-0.063002
-0.0668902
-0.0703732
-0.0726473
-0.07326
-0.0721602
-0.0697634
-0.0667942
-0.0641282
-0.0626052
-0.0632422
-0.067117
-0.075537
-0.0897101
-0.110629
-0.138354
-0.171161
-0.20481
-0.232376
-0.244123
-0.228501
-0.173909
-0.071985
0.0790104
0.27041
0.481505
0.681077
0.833064
0.905506
0.879932
0.758073
0.562599
0.331524
0.107451
-0.0742245
-0.193801
-0.249903
-0.255915
-0.232449
-0.199464
-0.170625
-0.151464
-0.14142
-0.136856
-0.134058
-0.130912
-0.127021
-0.123173
-0.120177
-0.118721
-0.118886
-0.120408
-0.122759
-0.125511
-0.128254
-0.13072
-0.132812
-0.13451
-0.135908
-0.13703
-0.137745
-0.137819
-0.136954
-0.134937
-0.131844
-0.128001
-0.123867
-0.119947
-0.116475
-0.113489
-0.110807
-0.10825
-0.105794
-0.103622
-0.1021
-0.101363
-0.101306
-0.101476
-0.101344
-0.100442
-0.0987429
-0.0966119
-0.0946936
-0.0935829
-0.0935634
-0.094425
-0.095637
-0.0965697
-0.0966733
-0.0958012
-0.0942365
-0.0923499
-0.0905795
-0.0891958
-0.0882225
-0.087477
-0.0867355
-0.0856667
-0.0840338
-0.0817207
-0.0788047
-0.0755643
-0.0724549
-0.0700934
-0.0690993
-0.0699274
-0.0727834
-0.0774702
-0.0835101
-0.0903152
-0.0973014
-0.104107
-0.110569
-0.116712
-0.122664
-0.128499
-0.133951
-0.138592
-0.14169
-0.142444
-0.140067
-0.13403
-0.124084
-0.110541
-0.0941721
-0.0760361
-0.0573489
-0.0393491
-0.0228673
-0.00832348
0.00429729
0.0152408
0.0248514
0.0333883
0.040909
0.0473442
0.0525488
0.0564254
0.0590888
0.0608453
0.0622008
0.0638102
0.0662402
0.0697497
0.0741991
0.0790341
0.0834672
0.0866683
0.0880439
0.0876485
0.0859778
0.0838405
0.0820375
0.0811907
0.0814639
0.0825534
0.083929
0.0850156
0.0854202
0.0850236
0.0838966
0.0821528
0.0800254
0.0776274
0.0749541
0.072134
0.0692887
0.0665483
0.0639864
0.0617071
0.0597246
0.0581077
0.0568718
0.0560456
0.0556339
0.0554153
0.0551127
0.0543758
0.0529332
0.050671
0.047701
0.0443686
0.041025
0.0379059
0.0351529
0.0326276
0.0301041
0.027461
0.0246961
0.0220642
0.020151
0.0194606
0.0202716
0.0224727
0.0254513
0.0282469
0.0298905
0.0296835
0.0275123
0.0238966
0.0197744
0.0161168
0.0136355
0.0124606
0.0122009
0.0122012
0.0118224
0.0106791
0.0087261
0.00630462
0.0038046
0.0015524
-0.000180162
-0.00137616
-0.00207625
-0.00225117
-0.0019103
-0.000995462
0.00067004
0.003216
0.00680543
0.0114765
0.0170906
0.0233548
0.0298942
0.0362931
0.0422694
0.0476936
0.0526632
0.057145
0.0611363
0.0644773
0.0669158
0.0682065
0.0682494
0.0670397
0.0647451
0.0616594
0.0580211
0.054162
0.0504841
0.0474802
0.045747
0.0456076
0.0468895
0.0487786
0.0498525
0.0484723
0.043398
0.034202
0.0213967
0.00638715
-0.00908513
-0.0233401
-0.0354419
-0.0448994
-0.0517878
-0.0563862
-0.0590059
-0.0599881
-0.0597595
-0.0588292
-0.0576561
-0.0567314
-0.056342
-0.0565105
-0.057057
-0.0576287
-0.0580041
-0.0579536
-0.0575029
-0.0567963
-0.0560442
-0.0554735
-0.0553465
-0.0559166
-0.0573101
-0.0598107
-0.0638513
-0.0702019
-0.0798446
-0.0939729
-0.113631
-0.138967
-0.168159
-0.196776
-0.217373
-0.219592
-0.191372
-0.12106
-0.0010891
0.168351
0.37596
0.598176
0.801625
0.949363
1.01018
0.967692
0.826194
0.610529
0.359961
0.117657
-0.0807404
-0.214932
-0.282506
-0.295583
-0.273979
-0.237823
-0.202141
-0.174652
-0.157095
-0.147472
-0.142587
-0.139812
-0.137798
-0.136253
-0.135275
-0.134897
-0.134938
-0.135133
-0.135271
-0.135209
-0.135016
-0.134915
-0.135195
-0.135807
-0.136445
-0.136558
-0.135472
-0.13281
-0.12861
-0.123335
-0.117787
-0.112781
-0.108695
-0.105638
-0.10321
-0.101017
-0.0987826
-0.0964943
-0.0942628
-0.0923264
-0.0906925
-0.0893204
-0.0880651
-0.086777
-0.0854167
-0.084055
-0.0827761
-0.0816867
-0.08087
-0.0803648
-0.0802104
-0.0803631
-0.0806958
-0.0809965
-0.0809274
-0.0802076
-0.0786893
-0.076383
-0.0736628
-0.0709301
-0.0686895
-0.0673078
-0.0668381
-0.0671174
-0.0678018
-0.0685265
-0.0690245
-0.0692795
-0.069553
-0.070258
-0.0717731
-0.07429
-0.077807
-0.0820483
-0.0867299
-0.0915869
-0.0965081
-0.101371
-0.106181
-0.110721
-0.114859
-0.11836
-0.1211
-0.123125
-0.124472
-0.125001
-0.124403
-0.122047
-0.117261
-0.109629
-0.0991112
-0.0861984
-0.0718793
-0.057282
-0.0434104
-0.0308197
-0.0194939
-0.00900616
0.001355
0.0121647
0.0238451
0.0363738
0.0495007
0.0627187
0.0755782
0.0875333
0.0983061
0.107568
0.115173
0.121082
0.125438
0.128445
0.130531
0.132072
0.133309
0.134465
0.135418
0.136017
0.136057
0.135463
0.134323
0.132856
0.131351
0.13002
0.128967
0.128234
0.127768
0.127496
0.127261
0.126908
0.126141
0.124795
0.122722
0.120088
0.117189
0.114436
0.112178
0.110577
0.109424
0.108337
0.106938
0.104897
0.102117
0.0986365
0.0946038
0.0902271
0.0857855
0.0814895
0.0776001
0.0743028
0.0718103
0.070216
0.069537
0.0696201
0.0703059
0.0712701
0.0722926
0.0730697
0.0734277
0.0732466
0.0725055
0.0712179
0.0694008
0.0671206
0.064389
0.061355
0.058204
0.0551381
0.0524098
0.0501543
0.0484
0.0470496
0.0459098
0.044822
0.0437079
0.0426756
0.041829
0.0412428
0.0408661
0.0406281
0.0403667
0.040045
0.039626
0.0391727
0.0387056
0.0381744
0.0374231
0.036374
0.0350537
0.0334663
0.0318347
0.0302536
0.0287662
0.0274254
0.0263545
0.02581
0.0262892
0.0282787
0.0321665
0.0380149
0.0453612
0.0533935
0.0610587
0.0674745
0.0721812
0.0752597
0.0774412
0.0796916
0.0829753
0.0878072
0.0941504
0.101186
0.107693
0.112362
0.114209
0.11293
0.108875
0.103049
0.0967605
0.0912603
0.0874582
0.0857222
0.0857141
0.0865462
0.0868897
0.0854433
0.0812304
0.0737704
0.0632435
0.0504037
0.0363276
0.0221963
0.00885634
-0.00302749
-0.013129
-0.0211692
-0.0271722
-0.0312161
-0.0335673
-0.0347191
-0.0351829
-0.0352193
-0.034961
-0.0343564
-0.0332637
-0.0316021
-0.0295172
-0.0273994
-0.0257694
-0.0251165
-0.0256287
-0.0271279
-0.0291287
-0.0310027
-0.0322832
-0.032899
-0.0332359
-0.0343234
-0.0375286
-0.0443995
-0.0562234
-0.0738996
-0.0975512
-0.126308
-0.157734
-0.187311
-0.208326
-0.212371
-0.189657
-0.130514
-0.0276131
0.121381
0.31091
0.525537
0.739744
0.921045
1.03617
1.05956
0.981276
0.811632
0.57997
0.327429
0.0958883
-0.0828663
-0.194023
-0.240878
-0.239969
-0.213371
-0.180902
-0.155183
-0.140804
-0.136455
-0.138116
-0.141583
-0.144196
-0.144752
-0.143205
-0.139898
-0.13543
-0.130483
-0.125776
-0.122002
-0.119547
-0.118542
-0.118677
-0.119503
-0.120591
-0.121608
-0.122459
-0.123138
-0.123779
-0.124335
-0.124797
-0.124952
-0.124542
-0.123404
-0.121427
-0.118637
-0.115314
-0.111842
-0.108619
-0.106143
-0.104699
-0.104396
-0.105046
-0.106218
-0.107312
-0.107743
-0.10705
-0.105095
-0.102233
-0.0989409
-0.0958876
-0.0936593
-0.0924437
-0.092231
-0.0927124
-0.0934471
-0.094088
-0.0944697
-0.0945686
-0.0944171
-0.094076
-0.0935426
-0.0926523
-0.0913695
-0.0896163
-0.0874974
-0.0852773
-0.0833624
-0.082042
-0.0815499
-0.0818721
-0.0826372
-0.0834269
-0.0838604
-0.0837306
-0.0833238
-0.0831499
-0.0838084
-0.0859337
-0.0895452
-0.0942959
-0.0996165
-0.104666
-0.108773
-0.111444
-0.112302
-0.111132
-0.107728
-0.101984
-0.0937746
-0.083246
-0.0706791
-0.056562
-0.0414845
-0.0261336
-0.0110076
0.00352743
0.0172021
0.0299046
0.0415973
0.0521638
0.0615232
0.0695211
0.0760924
0.081414
0.0855607
0.0888842
0.0916902
0.0941259
0.0963486
0.0983143
0.0998753
0.100834
0.101051
0.100521
0.0993737
0.0980106
0.0967104
0.0957154
0.0950365
0.0944558
0.0935837
0.0920529
0.0897049
0.0866413
0.0831651
0.0797989
0.0769966
0.0751501
0.0743616
0.0744527
0.0752079
0.0761041
0.0767318
0.0767969
0.0760544
0.0744488
0.0719921
0.0687329
0.0647797
0.0603582
0.0558035
0.0515059
0.0479263
0.0453241
0.0437811
0.0429948
0.0424465
0.0416301
0.0401042
0.0376972
0.0346401
0.0312964
0.0280784
0.0253425
0.0231721
0.0215794
0.0204298
0.0196244
0.0191178
0.0189086
0.0189978
0.0193305
0.0197156
0.0200035
0.0198956
0.0191644
0.0176742
0.0154474
0.0126841
0.0097841
0.00713828
0.00510678
0.00395694
0.00363943
0.00397129
0.00465713
0.00530785
0.00573459
0.00595555
0.00607684
0.00658889
0.00792212
0.010555
0.0148215
0.0205856
0.0274012
0.0344771
0.0409385
0.0461677
0.0498628
0.0522951
0.054051
0.0559321
0.0584821
0.0619052
0.0659882
0.0702469
0.0742147
0.0774812
0.0797843
0.0809446
0.0808369
0.0794037
0.0767059
0.0729435
0.0686245
0.0642925
0.0606856
0.0583422
0.0576737
0.0589293
0.0618818
0.0658025
0.0694327
0.0711423
0.069344
0.0629219
0.0516979
0.0364383
0.0188336
0.000747839
-0.016047
-0.0303637
-0.0415719
-0.0495907
-0.0546684
-0.0572215
-0.0578789
-0.0573482
-0.0564239
-0.0557928
-0.055861
-0.0566734
-0.0580409
-0.0594617
-0.0605318
-0.0610664
-0.0610399
-0.0604574
-0.0592708
-0.0574329
-0.0550235
-0.0522822
-0.049877
-0.0489923
-0.0512131
-0.0581502
-0.0711099
-0.0908062
-0.117082
-0.148508
-0.1818
-0.211494
-0.23008
-0.228586
-0.197483
-0.128509
-0.0168018
0.137346
0.327182
0.539042
0.753593
0.948134
1.09985
1.18948
1.20468
1.14237
1.00937
0.821189
0.599343
0.368142
0.150933
-0.0330827
-0.171513
-0.259863
-0.301564
-0.306056
-0.286308
-0.255753
-0.225454
-0.202105
-0.188121
-0.182294
-0.181533
-0.182648
-0.18352
-0.183329
-0.182319
-0.181083
-0.180135
-0.179594
-0.179137
-0.178291
-0.176598
-0.173834
-0.17001
-0.165498
-0.160844
-0.1566
-0.153191
-0.150878
-0.149575
-0.149067
-0.148936
-0.148863
-0.148517
-0.147836
-0.146679
-0.1451
-0.143126
-0.140888
-0.138569
-0.136279
-0.134118
-0.132141
-0.130374
-0.128812
-0.127548
-0.126684
-0.126232
-0.126085
-0.12602
-0.125662
-0.12461
-0.122643
-0.119748
-0.116301
-0.112839
-0.109913
-0.107983
-0.107165
-0.107225
-0.107746
-0.108221
-0.108252
-0.107759
-0.106882
-0.1059
-0.10515
-0.104789
-0.104837
-0.105181
-0.105746
-0.106498
-0.10746
-0.108658
-0.110097
-0.111614
-0.11306
-0.114251
-0.115147
-0.115866
-0.116441
-0.116782
-0.116516
-0.115151
-0.112123
-0.107076
-0.0999182
-0.0909857
-0.0807199
-0.0696459
-0.0582362
-0.046861
-0.0358648
-0.0255597
-0.0163038
-0.0083236
-0.00160625
0.00409343
0.00923978
0.014275
0.0195613
0.0252065
0.0312126
0.0374688
0.0439245
0.0506851
0.0578854
0.0655471
0.0733338
0.0807982
0.0873068
0.092352
0.095738
0.097668
0.0984945
0.098633
0.0982752
0.0974081
0.0959334
0.0937886
0.0911391
0.0883042
0.0857173
0.0836677
0.0822735
0.081403
0.0808233
0.0803908
0.0801158
0.0801242
0.0805913
0.0815708
0.0828738
0.0841073
0.0848451
0.0846944
0.0835027
0.0813825
0.0785698
0.0753782
0.072061
0.0687222
0.0654638
0.0623445
0.0594487
0.0568763
0.0546761
0.0528833
0.0514471
0.0502061
0.0488625
0.0471794
0.0450145
0.0423255
0.0393538
0.0364431
0.0340816
0.0326381
0.0321467
0.0324409
0.0330723
0.0335116
0.0333211
0.0322339
0.0303068
0.0277858
0.0250488
0.0224387
0.020185
0.0183976
0.017038
0.0159428
0.0150466
0.0142116
0.0132894
0.0122689
0.0111689
0.0100576
0.00913924
0.00868811
0.00887593
0.00982926
0.0114761
0.0135858
0.0160428
0.0188257
0.0220743
0.0261199
0.0311707
0.0371243
0.0436239
0.0500163
0.0556283
0.0601212
0.0635838
0.0664823
0.069427
0.0730169
0.0773125
0.0820868
0.0867533
0.0907309
0.0936501
0.0954392
0.0961758
0.0960966
0.0953795
0.0941478
0.092407
0.0901139
0.087262
0.0838243
0.0799168
0.0757702
0.0718698
0.0690228
0.0678543
0.0686306
0.0708164
0.072993
0.0732052
0.0695959
0.0610947
0.0477341
0.0308046
0.0122584
-0.00571835
-0.0214425
-0.0340798
-0.0434664
-0.0499054
-0.053949
-0.0560377
-0.0566608
-0.0562537
-0.05519
-0.053868
-0.0527179
-0.0519788
-0.0518313
-0.0523516
-0.053519
-0.0552004
-0.0571318
-0.0589808
-0.0603831
-0.0611573
-0.0614633
-0.0620661
-0.0642869
-0.0699047
-0.0806692
-0.0979023
-0.122024
-0.152041
-0.185417
-0.218067
-0.244644
-0.259226
-0.255793
-0.228615
-0.172401
-0.0827811
0.0427963
0.202951
0.390348
0.589993
0.778823
0.928557
1.01123
1.00652
0.908701
0.730073
0.499231
0.254363
0.0335078
-0.134923
-0.2381
-0.279402
-0.274404
-0.24369
-0.206005
-0.173859
-0.152303
-0.140754
-0.135713
-0.133414
-0.131402
-0.128791
-0.125789
-0.122976
-0.12087
-0.119822
-0.119905
-0.121029
-0.122946
-0.125168
-0.127236
-0.128609
-0.128967
-0.128099
-0.126128
-0.123364
-0.120264
-0.11739
-0.115099
-0.11374
-0.11335
-0.113711
-0.114451
-0.114986
-0.114763
-0.113337
-0.110468
-0.106206
-0.100944
-0.0951942
-0.089494
-0.0843929
-0.0801003
-0.0767174
-0.0741412
-0.0723067
-0.0711306
-0.0707363
-0.0712169
-0.0725792
-0.0746922
-0.0771826
-0.0795623
-0.08134
-0.08232
-0.082527
-0.0822412
-0.0818343
-0.0815525
-0.0815634
-0.0817168
-0.0817375
-0.0813806
-0.0804836
-0.0789141
-0.0767786
-0.0742591
-0.071542
-0.0690108
-0.0668909
-0.0654793
-0.0648771
-0.0650594
-0.0659227
-0.0672118
-0.0688268
-0.0708042
-0.0733359
-0.0766556
-0.0809286
-0.0859481
-0.091067
-0.0954445
-0.0980733
-0.0982667
-0.0956232
-0.090203
-0.0823853
-0.0727107
-0.0617365
-0.0501119
-0.0383622
-0.0270838
-0.01678
-0.00771653
9.90615e-6
0.0066281
0.0124916
0.0180122
0.0235045
0.0290187
0.0344762
0.03975
0.0446645
0.0492505
0.0536149
0.0579195
0.0622579
0.0666876
0.0710421
0.0751518
0.0787927
0.0818108
0.0840072
0.0852919
0.0855587
0.0847149
0.0827347
0.0797977
0.0761367
0.0721806
0.0684075
0.0652549
0.0631523
0.0622401
0.0624467
0.0635011
0.0649346
0.0661027
0.0666352
0.0660639
0.0642695
0.0613953
0.0577541
0.0538415
0.050001
0.0464698
0.0431904
0.0399434
0.0364578
0.0325215
0.028177
0.0238436
0.0200664
0.0174703
0.0165872
0.0173745
0.0194597
0.022068
0.0241082
0.0246511
0.0231862
0.0197096
0.0148053
0.00960957
0.00497248
0.00167929
-0.000186964
-0.00105206
-0.00158013
-0.00250715
-0.00420119
-0.00665702
-0.00945577
-0.0119921
-0.013619
-0.013939
-0.0128604
-0.0107715
-0.0082982
-0.00623494
-0.00530222
-0.00580825
-0.00769353
-0.0104576
-0.013315
-0.0155889
-0.0169345
-0.0173777
-0.0173882
-0.0176583
-0.0186015
-0.0204583
-0.0227167
-0.0244658
-0.0246486
-0.0224414
-0.0175386
-0.0103536
-0.00181803
0.00699823
0.0151956
0.0225118
0.0292385
0.0360835
0.0437893
0.0525764
0.0620042
0.0709826
0.0779953
0.0817239
0.0813216
0.0768145
0.0690224
0.0593268
0.0492985
0.0403576
0.0333772
0.0289835
0.0273811
0.0285198
0.0321073
0.0374665
0.043532
0.0488646
0.0520776
0.0519666
0.0480589
0.0405473
0.0303025
0.0185262
0.00627994
-0.00561898
-0.0167735
-0.0270869
-0.036338
-0.0443075
-0.0506654
-0.0551445
-0.0577242
-0.0586566
-0.058436
-0.057758
-0.0571128
-0.056797
-0.0568873
-0.0571789
-0.057462
-0.05762
-0.0577637
-0.0580478
-0.0586242
-0.0594753
-0.0605273
-0.061566
-0.0624478
-0.0633851
-0.065172
-0.0692005
-0.0772797
-0.0912399
-0.112266
-0.140122
-0.172165
-0.2028
-0.223779
-0.224844
-0.195247
-0.125453
-0.00950145
0.152644
0.353315
0.575942
0.795614
0.981831
1.1038
1.13722
1.07108
0.911843
0.683429
0.422202
0.168213
-0.0443714
-0.19455
-0.277686
-0.303487
-0.290314
-0.258474
-0.224337
-0.197468
-0.181067
-0.173702
-0.172169
-0.173362
-0.175402
-0.177434
-0.179129
-0.180228
-0.180463
-0.179655
-0.177853
-0.175377
-0.17264
-0.170069
-0.167839
-0.165843
-0.163891
-0.161866
-0.159749
-0.157767
-0.156123
-0.154973
-0.154376
-0.154203
-0.154193
-0.154082
-0.153599
-0.152551
-0.151035
-0.149248
-0.147637
-0.146688
-0.14665
-0.147442
-0.14858
-0.149201
-0.148457
-0.145892
-0.141664
-0.136556
-0.131776
-0.128442
-0.127153
-0.12775
-0.129552
-0.131462
-0.132611
-0.132535
-0.13135
-0.129646
-0.128103
-0.127325
-0.127513
-0.128575
-0.130058
-0.131531
-0.132492
-0.132645
-0.131939
-0.130468
-0.128554
-0.126719
-0.125538
-0.125422
-0.126604
-0.128919
-0.131928
-0.135112
-0.138039
-0.140694
-0.143329
-0.146459
-0.150487
-0.155511
-0.161205
-0.166765
-0.171145
-0.173251
-0.172201
-0.167485
-0.159002
-0.147039
-0.132346
-0.115858
-0.0986163
-0.0817514
-0.066183
-0.0525123
-0.0408983
-0.0310766
-0.022311
-0.013729
-0.00448033
0.00596016
0.0175674
0.0299598
0.0423627
0.0538864
0.0640008
0.0724752
0.0796111
0.0860089
0.0923652
0.0991639
0.106636
0.114609
0.12262
0.130064
0.136448
0.1414
0.144825
0.146839
0.147742
0.147918
0.147698
0.147293
0.146744
0.145905
0.144522
0.14243
0.139557
0.13599
0.131934
0.12774
0.123624
0.119847
0.116455
0.113383
0.110528
0.107715
0.104788
0.101802
0.0988947
0.0962802
0.0942143
0.0928074
0.092113
0.0919698
0.0921443
0.0923766
0.0923681
0.091873
0.0906852
0.0886813
0.0858898
0.0824397
0.0786268
0.0747659
0.071218
0.0681704
0.065705
0.0636982
0.0619106
0.060114
0.0579724
0.0554478
0.0525208
0.0494216
0.04643
0.0437807
0.0415134
0.0396067
0.0377618
0.0357563
0.0334971
0.0310459
0.0286972
0.0268203
0.0256411
0.0252669
0.0255206
0.0261486
0.0268298
0.0274235
0.0278361
0.0280939
0.0281805
0.028036
0.0275305
0.0265402
0.0251517
0.0235306
0.0222502
0.021791
0.0226866
0.0251872
0.029365
0.0348535
0.0411441
0.0476654
0.0538909
0.0596085
0.0647709
0.0695404
0.0741281
0.0786202
0.0829122
0.086761
0.0898829
0.0919827
0.0928597
0.0924652
0.0907365
0.0877112
0.0835342
0.0785629
0.0735952
0.069735
0.0681075
0.0695142
0.0737465
0.0795903
0.0848839
0.0872961
0.0850028
0.077311
0.0647946
0.0489607
0.0318515
0.0152491
0.000445918
-0.0119111
-0.0214864
-0.0283016
-0.0324072
-0.0341173
-0.0338425
-0.0322717
-0.0300711
-0.02794
-0.0263586
-0.0255259
-0.0255549
-0.0262417
-0.0274098
-0.0289312
-0.0306299
-0.0322118
-0.0334626
-0.0341752
-0.0342969
-0.0342063
-0.0347759
-0.0375839
-0.0445772
-0.0576135
-0.0779279
-0.105547
-0.138371
-0.171781
-0.198486
-0.208666
-0.190714
-0.133021
-0.0267
0.130551
0.330726
0.553211
0.765977
0.930649
1.01211
0.988848
0.860822
0.651143
0.400489
0.155556
-0.0440464
-0.175821
-0.237798
-0.244691
-0.219636
-0.185041
-0.156225
-0.139226
-0.133109
-0.133547
-0.136216
-0.138462
-0.139516
-0.139583
-0.139121
-0.138135
-0.136499
-0.134117
-0.131294
-0.12858
-0.126628
-0.125833
-0.126204
-0.127334
-0.128634
-0.129389
-0.129202
-0.127931
-0.125733
-0.122979
-0.120073
-0.117303
-0.114701
-0.112162
-0.109475
-0.10642
-0.102967
-0.0992486
-0.0955521
-0.092185
-0.0893407
-0.087183
-0.0856855
-0.0847706
-0.0844105
-0.0844957
-0.0848981
-0.0854236
-0.0858401
-0.0859587
-0.0856624
-0.0850404
-0.0842491
-0.0835406
-0.0831001
-0.0829051
-0.0827064
-0.0821968
-0.0810658
-0.0791551
-0.0765763
-0.0736529
-0.0708281
-0.0685164
-0.0669483
-0.066155
-0.0658984
-0.0659391
-0.0661323
-0.0664879
-0.0671305
-0.0682953
-0.0702042
-0.0729334
-0.0763353
-0.080109
-0.0838633
-0.0872737
-0.09018
-0.0926159
-0.0947905
-0.0968809
-0.099002
-0.100914
-0.102134
-0.101906
-0.0992983
-0.0935883
-0.0843826
-0.0717928
-0.0564074
-0.0393303
-0.0218871
-0.00538013
0.00923383
0.0213784
0.0310684
0.0387051
0.0449975
0.0505864
0.0559652
0.0612735
0.0663725
0.0710202
0.0749474
0.0781463
0.080817
0.0833119
0.0859627
0.0889354
0.0921877
0.095606
0.0988763
0.101779
0.104172
0.105998
0.107164
0.107816
0.107927
0.10756
0.106782
0.105692
0.104268
0.102598
0.100666
0.0984879
0.0961237
0.0937338
0.0914786
0.0895603
0.0881186
0.0872346
0.0868257
0.0866894
0.0865662
0.0861799
0.0853796
0.0839307
0.0817631
0.0788619
0.0753106
0.0712863
0.0670845
0.0629282
0.0590892
0.0556378
0.0525575
0.0496776
0.0468793
0.044033
0.0410714
0.0381246
0.0352876
0.0326964
0.0304647
0.0286161
0.027213
0.02611
0.0252324
0.0244283
0.0236142
0.0227157
0.0216854
0.0205531
0.0192959
0.0179438
0.0164296
0.0147408
0.0128767
0.0108816
0.00881755
0.00687214
0.00508582
0.0035953
0.00244212
0.00160203
0.00100481
0.000558163
0.000176358
-0.000305984
-0.00107009
-0.0022204
-0.00375536
-0.00535979
-0.00645002
-0.0061629
-0.00369325
0.00151243
0.00945518
0.0194946
0.0304601
0.0408496
0.0494396
0.0555714
0.0593563
0.0616363
0.0635257
0.0659871
0.0695523
0.0739418
0.0783391
0.0817788
0.0834988
0.0832586
0.0813691
0.0785022
0.0753066
0.0722618
0.0695714
0.0673321
0.065818
0.0655253
0.0672038
0.0713847
0.0778303
0.0853324
0.0917406
0.0947256
0.0924384
0.0842231
0.070733
0.0536826
0.0352869
0.0173336
0.000978429
-0.0133535
-0.025566
-0.035775
-0.0439046
-0.0498803
-0.0537954
-0.0559595
-0.0567625
-0.0567809
-0.0564491
-0.056125
-0.0559456
-0.0559064
-0.0559147
-0.0559057
-0.0557075
-0.0551655
-0.0541186
-0.0525897
-0.0508272
-0.0493135
-0.0487799
-0.0502597
-0.0550813
-0.0645274
-0.079856
-0.10161
-0.12927
-0.160659
-0.191806
-0.217325
-0.231153
-0.227736
-0.202864
-0.15376
-0.0787301
0.0236146
0.154008
0.311188
0.489711
0.677391
0.85401
0.993003
1.06663
1.05375
0.947599
0.759932
0.520007
0.267445
0.0418171
-0.127691
-0.22872
-0.266437
-0.25862
-0.22774
-0.193365
-0.167519
-0.154014
-0.150831
-0.153434
-0.157559
-0.160578
-0.161624
-0.160942
-0.158986
-0.156219
-0.153011
-0.149685
-0.146576
-0.144047
-0.142242
-0.141243
-0.140749
-0.140534
-0.140309
-0.139846
-0.139134
-0.13822
-0.137148
-0.135981
-0.134712
-0.133264
-0.131671
-0.129978
-0.128337
-0.126913
-0.12577
-0.124796
-0.123741
-0.122296
-0.120134
-0.117174
-0.113578
-0.109732
-0.106225
-0.103575
-0.102073
-0.101677
-0.1021
-0.102793
-0.103272
-0.103197
-0.102417
-0.101001
-0.0991354
-0.0970318
-0.0948146
-0.0926164
-0.0904884
-0.0885573
-0.0870278
-0.086084
-0.0859117
-0.0865822
-0.0879771
-0.089753
-0.0915292
-0.0928993
-0.0935588
-0.0934049
-0.0925977
-0.0914083
-0.0903379
-0.08979
-0.0900691
-0.0913305
-0.0934156
-0.0960842
-0.098944
-0.101661
-0.10398
-0.105684
-0.10659
-0.106532
-0.105265
-0.102552
-0.0981094
-0.0916796
-0.0829441
-0.0716383
-0.0575815
-0.040942
-0.022251
-0.00254518
0.0168217
0.034335
0.048728
0.0592368
0.0658587
0.0692931
0.070638
0.071222
0.0721329
0.0740625
0.0770911
0.0808568
0.0846586
0.0877899
0.0897383
0.090401
0.0899494
0.0887734
0.0873399
0.0860237
0.0849798
0.0842709
0.0838743
0.083805
0.0840157
0.0844908
0.0849537
0.0850683
0.0843871
0.0826212
0.0797071
0.0758624
0.0715016
0.0670786
0.0629092
0.0590512
0.0554459
0.0519667
0.0486107
0.0455291
0.0428599
0.0408185
0.0394568
0.0386923
0.0383468
0.0381742
0.0380015
0.0377921
0.0374911
0.0371397
0.0367736
0.0362914
0.0355834
0.034553
0.033212
0.031607
0.0297754
0.0276633
0.0251391
0.0218569
0.017608
0.0123645
0.00634037
0.000124977
-0.00567758
-0.0104638
-0.013794
-0.015635
-0.0161511
-0.0156967
-0.0147211
-0.0136431
-0.012835
-0.0126893
-0.0134253
-0.0150756
-0.0174571
-0.0201921
-0.0226352
-0.0242467
-0.024487
-0.0230541
-0.0198725
-0.0150284
-0.00880246
-0.00151882
0.00633817
0.0142196
0.0215444
0.0276867
0.0324708
0.0359551
0.0387009
0.0415387
0.0452018
0.0501605
0.056235
0.0626686
0.0683043
0.0719327
0.0727557
0.0705118
0.0655402
0.0586398
0.0507588
0.0430144
0.0361729
0.030924
0.0278612
0.0273017
0.0291228
0.0326694
0.0365991
0.0393005
0.0393082
0.0356702
0.0281806
0.0174503
0.00457717
-0.00921737
-0.0226973
-0.035048
-0.0455258
-0.0536862
-0.0592954
-0.062571
-0.0641698
-0.0651291
-0.0665398
-0.0690641
-0.0726944
-0.0768729
-0.0805391
-0.0827949
-0.083261
-0.0821618
-0.0801965
-0.0780756
-0.0760507
-0.073985
-0.0714181
-0.0681412
-0.0649352
-0.0635855
-0.0667744
-0.0772018
-0.0968101
-0.125554
-0.160891
-0.197271
-0.226676
-0.239257
-0.224484
-0.172582
-0.0763177
0.0667225
0.252074
0.466873
0.689879
0.894015
1.0509
1.13665
1.13737
1.05256
0.895151
0.688282
0.459715
0.236183
0.0390513
-0.118088
-0.229474
-0.296268
-0.324537
-0.323456
-0.303379
-0.274334
-0.244605
-0.219733
-0.202327
-0.192601
-0.18921
-0.190118
-0.193514
-0.197822
-0.201817
-0.204624
-0.20577
-0.205296
-0.203646
-0.201586
-0.199734
-0.198241
-0.196685
-0.194501
-0.191211
-0.186922
-0.182369
-0.178606
-0.176624
-0.176725
-0.17845
-0.180561
-0.181753
-0.180976
-0.178084
-0.173675
-0.168916
-0.165103
-0.163139
-0.16339
-0.165383
-0.168182
-0.170587
-0.171602
-0.170629
-0.167765
-0.163562
-0.158893
-0.154712
-0.15147
-0.149199
-0.14739
-0.145413
-0.1429
-0.139907
-0.137083
-0.135334
-0.13558
-0.138109
-0.142578
-0.147919
-0.152725
-0.155632
-0.155775
-0.153067
-0.148131
-0.142326
-0.137237
-0.134255
-0.13424
-0.137317
-0.142806
-0.149573
-0.156376
-0.162169
-0.166478
-0.169498
-0.171902
-0.174544
-0.177948
-0.18215
-0.186303
-0.188974
-0.188477
-0.183474
-0.173382
-0.158618
-0.140355
-0.120076
-0.0991527
-0.0783873
-0.0580748
-0.0381293
-0.018434
0.000911833
0.0194811
0.0365529
0.0514951
0.0637634
0.0731906
0.0799742
0.0846021
0.0877661
0.0900825
0.0919779
0.0936188
0.0950394
0.0959233
0.0961452
0.0957176
0.0948689
0.0939851
0.0935426
0.093905
0.0951173
0.0970144
0.0992139
0.101279
0.102808
0.103608
0.103566
0.102725
0.101255
0.0992668
0.096992
0.094688
0.0925781
0.0907429
0.0890904
0.0874014
0.0852998
0.0824704
0.0786585
0.074012
0.0687344
0.0631187
0.0575008
0.0521724
0.0473311
0.0431161
0.0396683
0.036877
0.0345896
0.0324055
0.0300145
0.0272421
0.0242181
0.0214098
0.0193725
0.0186047
0.0191272
0.0205791
0.0222293
0.0233407
0.0234911
0.0225831
0.0209183
0.0190178
0.0173363
0.0161084
0.0154102
0.0150242
0.0146695
0.0139451
0.0125724
0.0104336
0.00764409
0.00467292
0.0021577
0.000938909
0.0016958
0.00475373
0.0100172
0.0169975
0.0248946
0.0329658
0.0407714
0.0480653
0.0550779
0.0620771
0.0691873
0.0762278
0.0825841
0.0873736
0.0898183
0.0895024
0.0864144
0.0811489
0.0745503
0.0674957
0.0607605
0.0549088
0.050327
0.0474465
0.046627
0.0479838
0.0511065
0.0549036
0.0577437
0.0577994
0.0537727
0.0451723
0.0326639
0.0178583
0.00268789
-0.0110064
-0.022076
-0.0301857
-0.0355704
-0.0388642
-0.0407365
-0.0417533
-0.0423759
-0.0429104
-0.0436136
-0.0445832
-0.045915
-0.0475952
-0.0494698
-0.0513074
-0.0527462
-0.053403
-0.053052
-0.051616
-0.0492316
-0.0463077
-0.0433264
-0.0407194
-0.0388629
-0.0379231
-0.0382454
-0.0404267
-0.0455754
-0.0551314
-0.0705298
-0.0924316
-0.119696
-0.148532
-0.17205
-0.180574
-0.16261
-0.106461
-0.00316127
0.150224
0.347068
0.569033
0.786378
0.962164
1.06059
1.05689
0.945945
0.745706
0.493391
0.235455
0.0146838
-0.1411
-0.224217
-0.245362
-0.226317
-0.190797
-0.156988
-0.134181
-0.123648
-0.122029
-0.124797
-0.128511
-0.131414
-0.133323
-0.134554
-0.135537
-0.13636
-0.136924
-0.137208
-0.137064
-0.136468
-0.135425
-0.13416
-0.132876
-0.131806
-0.131042
-0.130529
-0.130025
-0.129176
-0.127753
-0.125612
-0.122786
-0.119428
-0.115743
-0.112012
-0.108474
-0.105314
-0.102734
-0.100709
-0.0990561
-0.0974506
-0.0955069
-0.0930221
-0.090122
-0.0871883
-0.0848177
-0.0836449
-0.0840357
-0.0858511
-0.0886905
-0.0918742
-0.0947377
-0.096884
-0.0981228
-0.0985121
-0.0981916
-0.097311
-0.0960432
-0.0945176
-0.0929985
-0.0916998
-0.0908644
-0.0907444
-0.0912995
-0.0924429
-0.0938746
-0.0953347
-0.0965183
-0.0973087
-0.0977002
-0.0978973
-0.0982542
-0.0991887
-0.10097
-0.103676
-0.10709
-0.110918
-0.114757
-0.1183
-0.121506
-0.124397
-0.127141
-0.129715
-0.131946
-0.133491
-0.133672
-0.131721
-0.126967
-0.118784
-0.106932
-0.0915969
-0.0734622
-0.0536486
-0.0334921
-0.0142923
0.00297216
0.0179582
0.0307649
0.0420487
0.052522
0.0627297
0.0728851
0.0828738
0.0922757
0.100667
0.107771
0.113416
0.117654
0.120455
0.12181
0.121817
0.120573
0.118346
0.115606
0.112831
0.110437
0.108606
0.107228
0.106099
0.104819
0.103165
0.101105
0.0987996
0.0966374
0.0949898
0.0942395
0.0945734
0.0959009
0.0979508
0.100285
0.102379
0.103774
0.104146
0.103333
0.101375
0.0984479
0.0948015
0.0906326
0.0861548
0.0815865
0.0771661
0.0731258
0.0696316
0.0668705
0.0647885
0.0632953
0.0622364
0.0614054
0.0605988
0.059621
0.0582806
0.0563643
0.0537708
0.0504935
0.0467514
0.0429163
0.0394602
0.0367561
0.034941
0.0339005
0.0332817
0.0327245
0.0318356
0.0306206
0.0293498
0.0283827
0.0281061
0.0286118
0.0296902
0.0306538
0.0308755
0.0297556
0.0271279
0.0233705
0.0193196
0.0160654
0.0147321
0.0160411
0.0201043
0.0264296
0.0340061
0.041611
0.0481362
0.0528472
0.0555411
0.0566518
0.0568807
0.0571123
0.0581353
0.0604565
0.0641018
0.0687124
0.0736319
0.0780018
0.0811472
0.0826718
0.082425
0.0805929
0.0776287
0.0740322
0.0704468
0.0675009
0.0658427
0.0658904
0.0677111
0.0706812
0.0735211
0.0744394
0.0717867
0.0644685
0.0524141
0.0365182
0.0186084
0.000750702
-0.0152535
-0.0282732
-0.0379102
-0.044393
-0.0483868
-0.0505996
-0.0518449
-0.0527448
-0.0538021
-0.0551122
-0.0565682
-0.0578004
-0.0585054
-0.058393
-0.0576095
-0.0564527
-0.0554545
-0.0552169
-0.0563386
-0.0592611
-0.064541
-0.0724888
-0.0832025
-0.0965716
-0.112356
-0.13049
-0.150987
-0.17375
-0.198114
-0.222084
-0.24185
-0.25181
-0.245045
-0.21398
-0.150925
-0.0492265
0.0948085
0.279374
0.494108
0.718052
0.92054
1.06591
1.12244
1.07239
0.919467
0.689812
0.425833
0.174103
-0.0274989
-0.159124
-0.221365
-0.230646
-0.210463
-0.182379
-0.160142
-0.148562
-0.145978
-0.148155
-0.151366
-0.153598
-0.154518
-0.154727
-0.154749
-0.154784
-0.154769
-0.154541
-0.154111
-0.153437
-0.152497
-0.151196
-0.149547
-0.147681
-0.145894
-0.14443
-0.143563
-0.143214
-0.143108
-0.142838
-0.141951
-0.140249
-0.13783
-0.134998
-0.132113
-0.129583
-0.12758
-0.126109
-0.124993
-0.123911
-0.122475
-0.120307
-0.117147
-0.112874
-0.107653
-0.10187
-0.0961398
-0.0911318
-0.0875084
-0.0856243
-0.0855315
-0.0869979
-0.0894701
-0.0923507
-0.0950607
-0.0972164
-0.0986586
-0.0994212
-0.0996285
-0.099469
-0.0991787
-0.0989492
-0.0990228
-0.0995921
-0.100816
-0.102619
-0.104841
-0.107148
-0.109069
-0.11033
-0.110681
-0.110192
-0.109159
-0.108007
-0.107161
-0.106985
-0.107613
-0.109022
-0.111017
-0.113359
-0.115817
-0.1181
-0.119884
-0.120701
-0.120021
-0.117084
-0.111207
-0.101817
-0.0885427
-0.071434
-0.0509228
-0.0280336
-0.0039782
0.0196167
0.0412686
0.0598404
0.0746322
0.0856404
0.093432
0.0987932
0.102648
0.105646
0.108133
0.110105
0.111438
0.111991
0.111812
0.111174
0.110416
0.109903
0.109795
0.109967
0.110146
0.109999
0.109276
0.107905
0.106065
0.104035
0.101965
0.100046
0.0982043
0.0962844
0.0942878
0.0923029
0.0905675
0.0895141
0.0892959
0.0899279
0.0910164
0.0919899
0.0921391
0.0909976
0.0883251
0.0842487
0.0791782
0.0735707
0.0679731
0.062828
0.0584402
0.0549884
0.052539
0.0510624
0.0503788
0.0502767
0.0504942
0.0506926
0.0505685
0.049883
0.048417
0.0460778
0.0428191
0.0387515
0.0340217
0.0289043
0.023809
0.0191442
0.015435
0.0129979
0.011989
0.0122496
0.0133675
0.0148032
0.016093
0.0168965
0.0170785
0.0167969
0.0162719
0.0157459
0.0153588
0.0150561
0.0147239
0.0141447
0.0131578
0.0117684
0.0101317
0.00857333
0.00760091
0.00761462
0.00916629
0.012463
0.0175193
0.0240457
0.0313386
0.0386521
0.0452877
0.0508518
0.0553876
0.0593851
0.0633868
0.0678193
0.0727622
0.0776858
0.0817522
0.0841516
0.0844338
0.0826266
0.0792165
0.0750417
0.0710432
0.0680395
0.0667126
0.0674956
0.0704994
0.0752371
0.080449
0.0844671
0.0852397
0.0811805
0.0716597
0.0572006
0.0393827
0.0203644
0.00232433
-0.0132847
-0.0257006
-0.0348685
-0.0411994
-0.0452763
-0.0476182
-0.0487715
-0.0492514
-0.0493837
-0.0494009
-0.0493952
-0.0493976
-0.0493492
-0.0491414
-0.0487195
-0.048122
-0.0472987
-0.0462605
-0.0450449
-0.043529
-0.0416691
-0.0395054
-0.0372495
-0.0352541
-0.0341121
-0.0347777
-0.0383774
-0.0462577
-0.0596529
-0.0793352
-0.105206
-0.135752
-0.167513
-0.194795
-0.210009
-0.204303
-0.168329
-0.0935392
0.025916
0.190405
0.392277
0.61379
0.827199
0.998522
1.09461
1.0922
0.985794
0.791289
0.543003
0.284758
0.0579683
-0.109008
-0.206286
-0.241616
-0.234136
-0.206042
-0.175352
-0.152391
-0.139944
-0.136099
-0.137254
-0.140208
-0.143004
-0.144724
-0.145014
-0.143649
-0.140646
-0.136262
-0.131154
-0.126156
-0.122025
-0.119334
-0.118278
-0.118807
-0.120594
-0.123152
-0.125897
-0.128092
-0.12923
-0.129002
-0.127454
-0.124933
-0.121978
-0.119092
-0.11654
-0.114418
-0.112599
-0.110952
-0.109388
-0.107974
-0.106868
-0.106141
-0.105607
-0.105111
-0.104316
-0.103004
-0.101137
-0.0988239
-0.0963307
-0.0939119
-0.0917845
-0.0900608
-0.0887109
-0.0876504
-0.086799
-0.0861012
-0.0855323
-0.0852458
-0.0853882
-0.086153
-0.0876942
-0.0898895
-0.0923993
-0.0947495
-0.0964308
-0.0970497
-0.096466
-0.0948419
-0.092593
-0.0901297
-0.0878231
-0.0857814
-0.083998
-0.0824095
-0.0810376
-0.0800809
-0.0798864
-0.0807765
-0.082822
-0.0859469
-0.0897848
-0.0937093
-0.0972284
-0.099831
-0.10122
-0.101134
-0.0992915
-0.0953141
-0.0889322
-0.0799042
-0.0684257
-0.0551064
-0.0409615
-0.0272531
-0.0151122
-0.00515933
0.0026201
0.00878428
0.0143404
0.0202516
0.0272393
0.0356009
0.045152
0.0554232
0.0656413
0.0749757
0.0827558
0.0884139
0.0918548
0.0933283
0.0934717
0.0931406
0.093148
0.0939888
0.0957326
0.0979378
0.0999785
0.10121
0.101289
0.100344
0.0988076
0.0972902
0.0962467
0.0958532
0.0958662
0.0957983
0.0951666
0.0936342
0.0913026
0.0885092
0.0858084
0.0837227
0.0825446
0.0822757
0.0826386
0.083183
0.0833755
0.0828459
0.0814136
0.0791203
0.076129
0.0727301
0.0691026
0.0654552
0.0617761
0.0580975
0.0544584
0.0509318
0.0476992
0.0450121
0.0429994
0.0417286
0.0411008
0.0409058
0.0408208
0.0406617
0.0402105
0.039337
0.0379601
0.0360588
0.033571
0.0305206
0.0269759
0.0230661
0.0189609
0.0147744
0.0107114
0.00696217
0.00384106
0.00150071
8.11079e-5
-0.000611563
-0.00098865
-0.00147853
-0.00251249
-0.00427716
-0.0065493
-0.00888064
-0.0108167
-0.0120418
-0.0124943
-0.012357
-0.0118441
-0.0109624
-0.00948888
-0.00693963
-0.0027197
0.00354291
0.0117915
0.0214226
0.0313589
0.0403618
0.0474881
0.0523105
0.0550915
0.0566887
0.0581896
0.0605217
0.0641729
0.0688811
0.0740103
0.078653
0.0820964
0.0839475
0.0842236
0.0831566
0.0810578
0.0781414
0.0745119
0.0703109
0.0657296
0.061107
0.0569321
0.0537474
0.0521399
0.052524
0.0551203
0.0598113
0.0657868
0.0717092
0.0757052
0.0760263
0.0713634
0.0613642
0.0467859
0.0292602
0.0107459
-0.00682436
-0.0221625
-0.0346468
-0.0442669
-0.0513338
-0.056283
-0.0596594
-0.0617917
-0.0630917
-0.0637408
-0.0638385
-0.0634065
-0.0624615
-0.0610197
-0.0592445
-0.0573034
-0.0554618
-0.053936
-0.0528233
-0.0520344
-0.0515401
-0.0513055
-0.0513286
-0.0517502
-0.0529275
-0.0555037
-0.0606139
-0.0697375
-0.0844973
-0.106047
-0.134433
-0.16757
-0.200639
-0.226283
-0.235091
-0.216891
-0.162115
-0.0639242
0.0793925
0.262028
0.469016
0.676296
0.853346
0.968907
0.998324
0.931063
0.775198
0.556659
0.313342
0.0851196
-0.0960557
-0.213325
-0.266795
-0.270054
-0.243472
-0.20694
-0.174561
-0.153015
-0.142702
-0.140508
-0.142486
-0.145469
-0.14768
-0.148582
-0.148106
-0.146449
-0.143733
-0.140243
-0.136335
-0.132389
-0.128682
-0.125295
-0.122217
-0.119226
-0.116206
-0.112987
-0.109711
-0.10654
-0.103838
-0.101983
-0.101243
-0.101652
-0.103047
-0.104967
-0.106829
-0.108048
-0.108224
-0.107185
-0.10506
-0.10209
-0.0986348
-0.0950466
-0.0916127
-0.0886281
-0.0862656
-0.0847526
-0.0841403
-0.0843593
-0.0852589
-0.0865667
-0.0880116
-0.0894529
-0.0907176
-0.0918943
-0.0929438
-0.093847
-0.0945103
-0.0947727
-0.0944319
-0.0934051
-0.0916852
-0.0894469
-0.0869007
-0.084294
-0.0818069
-0.0795225
-0.0776451
-0.0764217
-0.0761136
-0.0769719
-0.0789743
-0.0817512
-0.0847215
-0.0872351
-0.0889085
-0.0899183
-0.0908286
-0.0923815
-0.0951068
-0.0990457
-0.103682
-0.108119
-0.11138
-0.112845
-0.112261
-0.109713
-0.105493
-0.0997666
-0.0926477
-0.0841456
-0.074477
-0.0640463
-0.0535058
-0.0433897
-0.0341135
-0.0255792
-0.0173898
-0.00891803
0.00028051
0.0102118
0.020402
0.0301369
0.0385931
0.0452747
0.0500287
0.0532974
0.0557954
0.0583404
0.061465
0.0653361
0.0696457
0.073776
0.0769907
0.0787564
0.0788524
0.0774246
0.0749462
0.07191
0.0689251
0.0664528
0.0648974
0.0645504
0.0655506
0.0677117
0.0706263
0.0735204
0.0754939
0.075695
0.0736137
0.0692498
0.0631686
0.0563434
0.0498587
0.0446529
0.0413368
0.0399835
0.0403482
0.0418317
0.0437951
0.0454985
0.0463415
0.0458492
0.0438701
0.0405767
0.036492
0.0322949
0.0286923
0.026059
0.0245089
0.0237954
0.0234351
0.0229856
0.0220529
0.0203789
0.0178493
0.0143114
0.00984507
0.00458349
-0.00120208
-0.00710329
-0.0126925
-0.017526
-0.0213769
-0.0240769
-0.0256544
-0.0261959
-0.0259177
-0.0251003
-0.024123
-0.0232652
-0.022805
-0.0227349
-0.0228691
-0.0229118
-0.0227066
-0.0222909
-0.0218453
-0.0217693
-0.0222292
-0.0230066
-0.0235409
-0.0229071
-0.0203846
-0.0157065
-0.00915632
-0.00168422
0.00560428
0.0118192
0.016697
0.0205683
0.0242805
0.0286431
0.0341498
0.0406964
0.0476546
0.0540388
0.0590917
0.0623157
0.0636476
0.0634542
0.0622108
0.060332
0.0579121
0.0548387
0.050888
0.0458722
0.0399865
0.0338971
0.0287997
0.0260735
0.0267527
0.0310583
0.0379858
0.0455073
0.0508958
0.0516833
0.0463601
0.0348423
0.0185399
-0.000138075
-0.0186075
-0.0347652
-0.0475837
-0.0570087
-0.063815
-0.0689334
-0.0731216
-0.0765758
-0.0791415
-0.0805011
-0.0805211
-0.0794631
-0.0778174
-0.0761254
-0.0747587
-0.0737892
-0.0730704
-0.0724168
-0.0717573
-0.0711656
-0.0707976
-0.0707753
-0.0711038
-0.0717268
-0.0727549
-0.0747829
-0.0789495
-0.086847
-0.100156
-0.120035
-0.146362
-0.177024
-0.207354
-0.230451
-0.237563
-0.218962
-0.165157
-0.0686507
0.073524
0.257233
0.468958
0.685107
0.874253
1.00279
1.04322
0.982428
0.827136
0.603593
0.35145
0.113161
-0.077279
-0.201959
-0.261137
-0.269456
-0.248332
-0.218206
-0.192911
-0.178197
-0.173353
-0.174359
-0.176971
-0.178358
-0.177735
-0.175509
-0.172479
-0.169234
-0.166052
-0.162988
-0.160108
-0.157563
-0.155511
-0.154261
-0.1539
-0.154308
-0.155239
-0.156314
-0.157122
-0.15731
-0.156543
-0.154596
-0.151523
-0.14752
-0.143052
-0.138628
-0.134762
-0.131873
-0.130069
-0.12931
-0.12933
-0.129902
-0.130807
-0.131885
-0.133016
-0.134037
-0.134839
-0.135214
-0.135004
-0.134098
-0.132436
-0.129949
-0.12678
-0.123262
-0.119827
-0.116991
-0.115319
-0.115039
-0.116046
-0.117881
-0.119783
-0.120994
-0.121018
-0.119694
-0.117372
-0.114679
-0.112241
-0.110613
-0.110069
-0.110711
-0.112387
-0.11488
-0.117804
-0.120749
-0.123347
-0.125214
-0.126215
-0.126466
-0.126357
-0.126549
-0.127688
-0.130367
-0.134774
-0.140782
-0.147715
-0.154634
-0.160329
-0.163619
-0.163349
-0.15877
-0.149524
-0.135909
-0.119005
-0.100568
-0.0828233
-0.0678459
-0.0570762
-0.0507925
-0.0480934
-0.0471643
-0.0459583
-0.0426955
-0.0363386
-0.0267403
-0.0143096
0.000387912
0.016693
0.0340462
0.0519411
0.0697
0.0864348
0.101295
0.1136
0.123023
0.129634
0.133907
0.136473
0.137988
0.138889
0.139519
0.140095
0.140756
0.141588
0.142593
0.143755
0.144989
0.14624
0.147458
0.148581
0.149572
0.150341
0.150654
0.150251
0.148947
0.146617
0.143274
0.139148
0.134604
0.129964
0.125583
0.12167
0.118326
0.115492
0.112955
0.110599
0.108324
0.106129
0.104092
0.102341
0.100904
0.099693
0.0985136
0.0970946
0.0952133
0.0926855
0.0894517
0.085611
0.0813773
0.0769822
0.0727252
0.0687665
0.0653384
0.0625971
0.0605175
0.0590921
0.0581602
0.0574796
0.0567588
0.0558015
0.0544914
0.0528127
0.0508323
0.048636
0.0462529
0.0436758
0.040904
0.0380745
0.035539
0.0336585
0.0326745
0.0326572
0.0333453
0.0340564
0.0340984
0.0329433
0.0304778
0.0272494
0.024274
0.0226916
0.0234805
0.0269625
0.0327447
0.0399982
0.047649
0.054827
0.0611854
0.0668514
0.072178
0.0775761
0.0831501
0.0885752
0.0933055
0.0966874
0.0981962
0.0977068
0.0953579
0.0915462
0.0867268
0.0814036
0.0760272
0.0710642
0.0671004
0.0647954
0.0647179
0.0670135
0.0711532
0.0757586
0.0789519
0.0787657
0.0738977
0.0639286
0.0495426
0.0323177
0.0142315
-0.00294316
-0.017914
-0.0300122
-0.039133
-0.0454473
-0.0493745
-0.0514525
-0.0521823
-0.052103
-0.0516621
-0.0510664
-0.050463
-0.0498859
-0.049375
-0.0490237
-0.0489685
-0.0491809
-0.0496695
-0.0501903
-0.0503635
-0.0499111
-0.0486415
-0.0465594
-0.0438878
-0.0412441
-0.0392896
-0.0388869
-0.0410259
-0.0467241
-0.057007
-0.0726028
-0.093745
-0.11975
-0.148631
-0.176423
-0.197149
-0.203248
-0.18599
-0.136472
-0.0469557
0.0868594
0.26326
0.471714
0.691612
0.892956
1.04135
1.10589
1.0681
0.929156
0.711344
0.453366
0.199817
-0.0107734
-0.155478
-0.230535
-0.248466
-0.230912
-0.199953
-0.171803
-0.154066
-0.14729
-0.147979
-0.151681
-0.155161
-0.156839
-0.156645
-0.155074
-0.152763
-0.150275
-0.14811
-0.146403
-0.145255
-0.144538
-0.143943
-0.14322
-0.142209
-0.140836
-0.139198
-0.137365
-0.135333
-0.133033
-0.130375
-0.127275
-0.123765
-0.119869
-0.115803
-0.111655
-0.107571
-0.103717
-0.100242
-0.0973482
-0.0952159
-0.0940235
-0.0938525
-0.0946621
-0.0961694
-0.0980841
-0.0999685
-0.101353
-0.1019
-0.101494
-0.10025
-0.0985318
-0.0968191
-0.0955753
-0.0949829
-0.0949462
-0.0950915
-0.0949924
-0.0943296
-0.0930415
-0.0911596
-0.0889431
-0.0864765
-0.0837885
-0.0808279
-0.0776398
-0.074537
-0.0719613
-0.0704206
-0.0702295
-0.0714495
-0.0738126
-0.076808
-0.0800022
-0.0830638
-0.085924
-0.0886505
-0.0914768
-0.0945177
-0.0977953
-0.101201
-0.104574
-0.107681
-0.110164
-0.111632
-0.111492
-0.109123
-0.103773
-0.0949753
-0.0825785
-0.066952
-0.0490139
-0.0300428
-0.0114842
0.00544828
0.0199508
0.0317452
0.0411049
0.0485654
0.0548281
0.0604265
0.065742
0.0708193
0.0757213
0.0803715
0.0847878
0.0889539
0.0929443
0.0966621
0.0999592
0.102636
0.104498
0.105571
0.105958
0.106006
0.106105
0.106535
0.107377
0.108383
0.109145
0.109259
0.108501
0.106936
0.104851
0.102673
0.100627
0.0987138
0.0967288
0.0944546
0.0917989
0.0888253
0.0857556
0.08286
0.0801487
0.0775023
0.0746104
0.0712293
0.0674165
0.063416
0.059636
0.056482
0.054224
0.0529098
0.0522467
0.0519438
0.0516728
0.0511578
0.0502851
0.049026
0.0474457
0.0455879
0.0435085
0.0413392
0.0391109
0.0369152
0.0346629
0.0323445
0.0299362
0.0273366
0.02459
0.0217542
0.0188872
0.0162342
0.0139678
0.0121635
0.0107915
0.00968486
0.00851661
0.00701312
0.00506494
0.00287756
0.000808003
-0.00067451
-0.00127032
-0.000992857
-6.17931e-5
0.00110817
0.00228563
0.00348527
0.00504699
0.00746572
0.0112507
0.0166578
0.0234653
0.0312341
0.039092
0.0461484
0.0517222
0.0554618
0.0575126
0.0585019
0.0592865
0.0606604
0.0632186
0.0670464
0.0718406
0.0768909
0.081406
0.0847266
0.086418
0.0863962
0.0847453
0.0819518
0.0785381
0.0751989
0.0728095
0.0721702
0.0736626
0.0769654
0.0809786
0.0838546
0.0836391
0.0788414
0.0689438
0.0546274
0.0375363
0.0195592
0.00244659
-0.0126229
-0.0251543
-0.0351173
-0.042662
-0.0480586
-0.0515411
-0.053487
-0.0544147
-0.0548175
-0.0550688
-0.0554553
-0.0559466
-0.0563782
-0.0565031
-0.0561605
-0.0551929
-0.0535027
-0.0510438
-0.047967
-0.044793
-0.0424376
-0.041958
-0.0444805
-0.0508985
-0.0615308
-0.0763372
-0.0949886
-0.11707
-0.1422
-0.169497
-0.196711
-0.219511
-0.231233
-0.222843
-0.183937
-0.104755
0.0207886
0.191438
0.395639
0.610103
0.802288
0.936495
0.983034
0.92752
0.776822
0.558654
0.314503
0.0878314
-0.0876921
-0.196098
-0.240382
-0.237386
-0.20951
-0.176612
-0.150894
-0.136271
-0.130772
-0.130206
-0.130862
-0.130672
-0.12926
-0.127121
-0.124937
-0.123184
-0.122098
-0.121768
-0.122187
-0.123332
-0.124991
-0.126941
-0.128992
-0.13094
-0.132619
-0.133786
-0.134159
-0.1335
-0.131656
-0.128631
-0.124708
-0.120325
-0.115956
-0.111963
-0.108566
-0.105696
-0.103174
-0.100823
-0.0985589
-0.0964465
-0.0946557
-0.0932125
-0.0921608
-0.0912387
-0.0902544
-0.0889218
-0.0872544
-0.0853556
-0.0835303
-0.0820302
-0.0809182
-0.0800776
-0.0792647
-0.0781089
-0.0763634
-0.0740066
-0.0711935
-0.0682477
-0.0656144
-0.0635752
-0.0622512
-0.0616192
-0.0614809
-0.06167
-0.0620874
-0.06268
-0.0635555
-0.0648107
-0.0664446
-0.0683759
-0.070401
-0.0722783
-0.0737572
-0.0746921
-0.0749827
-0.0746587
-0.0738299
-0.0727088
-0.0715598
-0.0707266
-0.0705388
-0.0712506
-0.0728841
-0.0751223
-0.0772922
-0.0785014
-0.0777453
-0.0742283
-0.0676109
-0.0580562
-0.0462767
-0.0334229
-0.0206793
-0.00912921
0.000637087
0.00853743
0.0151014
0.0210941
0.0273436
0.034382
0.0423057
0.0508427
0.0594612
0.0675862
0.0748514
0.0810376
0.0860894
0.0900926
0.0931916
0.0953973
0.0968374
0.0975349
0.0975277
0.0968457
0.0955789
0.0939502
0.0922931
0.0909804
0.0902642
0.0901881
0.0904466
0.0905436
0.0898636
0.0879431
0.0846823
0.0803637
0.075547
0.0708703
0.0668076
0.0636153
0.0612197
0.0594133
0.0579779
0.0566882
0.0554232
0.0541352
0.0526261
0.050793
0.0484727
0.0455274
0.0419951
0.0380147
0.0338406
0.0297986
0.0261021
0.0229263
0.0203389
0.0182556
0.0166584
0.015516
0.0147857
0.0143722
0.0141014
0.0136404
0.0126668
0.0109822
0.00861011
0.00590756
0.00343846
0.0018768
0.00158307
0.00257717
0.00451062
0.00672485
0.008521
0.00933974
0.008933
0.00736354
0.00489076
0.00183638
-0.00132621
-0.0041526
-0.00616663
-0.00671982
-0.00526598
-0.00148847
0.0045545
0.0123386
0.020967
0.0294971
0.0372216
0.0439266
0.0499676
0.0560469
0.0628629
0.0706983
0.0792951
0.0878099
0.0950804
0.0999408
0.101548
0.0997732
0.0951591
0.0888684
0.0824339
0.0774391
0.075018
0.0754004
0.077754
0.080269
0.0807032
0.0771571
0.0686807
0.0556845
0.0397397
0.0231052
0.00795064
-0.00432154
-0.0133015
-0.0195616
-0.0241065
-0.0279802
-0.0318663
-0.0359852
-0.0402489
-0.0443833
-0.048054
-0.0510752
-0.0534512
-0.0553179
-0.0568057
-0.0579562
-0.0588465
-0.0594725
-0.0598431
-0.0600141
-0.059987
-0.0597361
-0.0592227
-0.0584273
-0.0574796
-0.0569608
-0.0580782
-0.0624831
-0.0719962
-0.088131
-0.111615
-0.141571
-0.174871
-0.205868
-0.226171
-0.224991
-0.190273
-0.111154
0.0182582
0.194912
0.40357
0.616453
0.797225
0.909099
0.925338
0.838108
0.662309
0.432441
0.192827
-0.0150156
-0.163391
-0.243805
-0.265395
-0.248231
-0.214525
-0.181557
-0.15831
-0.146171
-0.142215
-0.142381
-0.143824
-0.145329
-0.146905
-0.148952
-0.151464
-0.154065
-0.156138
-0.157238
-0.157277
-0.156479
-0.15529
-0.154039
-0.152812
-0.151576
-0.150083
-0.148232
-0.146024
-0.143732
-0.141659
-0.139958
-0.138529
-0.137063
-0.135099
-0.132362
-0.128887
-0.125225
-0.121876
-0.119382
-0.117961
-0.117554
-0.117803
-0.118263
-0.118561
-0.118407
-0.11753
-0.115786
-0.113044
-0.109398
-0.105185
-0.100929
-0.0973549
-0.0950537
-0.0943089
-0.09479
-0.0959048
-0.0966553
-0.0961833
-0.0939498
-0.0900004
-0.085017
-0.0800718
-0.0761415
-0.0739799
-0.073704
-0.0748605
-0.0767028
-0.0784552
-0.0796377
-0.080045
-0.0798173
-0.0792442
-0.0785383
-0.0778976
-0.077398
-0.0772193
-0.0776481
-0.079006
-0.0814754
-0.0850455
-0.0894722
-0.0941447
-0.0984434
-0.101814
-0.103823
-0.104187
-0.102691
-0.0991262
-0.0933508
-0.0852933
-0.075075
-0.0630943
-0.0498886
-0.0360633
-0.0220374
-0.0081268
0.00552633
0.018841
0.0316291
0.0436222
0.0544023
0.0636505
0.0711779
0.0769559
0.0811594
0.0839987
0.0856913
0.0863312
0.0858694
0.0843692
0.0820097
0.079181
0.0763639
0.0740315
0.072415
0.0714556
0.0709597
0.0707209
0.0707486
0.071275
0.0725316
0.074582
0.0771861
0.079707
0.0813767
0.081535
0.0799506
0.0768005
0.072593
0.0680141
0.0636052
0.0597489
0.0565268
0.053811
0.0514425
0.0491359
0.0467293
0.0440715
0.041253
0.0382646
0.0352663
0.0323272
0.0294534
0.0266297
0.023902
0.0212596
0.0187423
0.0163111
0.0137948
0.0108968
0.00729913
0.0028665
-0.00225264
-0.00743399
-0.0118441
-0.0146386
-0.0152804
-0.0138669
-0.0110305
-0.00786213
-0.00566074
-0.00541293
-0.0075788
-0.0119904
-0.0178486
-0.0239516
-0.0291616
-0.0325627
-0.0337967
-0.0331029
-0.0311756
-0.0289929
-0.0273929
-0.0267403
-0.0267418
-0.0265438
-0.0248885
-0.020763
-0.0136665
-0.00407479
0.00677582
0.0171924
0.025558
0.0310961
0.033741
0.0342549
0.0337536
0.0333823
0.0339723
0.0361686
0.0401989
0.0460051
0.0531956
0.0609014
0.0679573
0.0730888
0.0751789
0.0738091
0.069389
0.0630594
0.0563768
0.0508403
0.0473903
0.0464864
0.0479082
0.0508386
0.054124
0.0563217
0.0560374
0.0519182
0.0430189
0.0290375
0.0107308
-0.0102596
-0.0314975
-0.0504003
-0.0649502
-0.0741475
-0.0783697
-0.0790455
-0.0782243
-0.077838
-0.0789631
-0.0816328
-0.085039
-0.0880172
-0.0897119
-0.0898635
-0.0887728
-0.0871258
-0.0855811
-0.084533
-0.084139
-0.0843746
-0.085301
-0.0872107
-0.0905075
-0.0956287
-0.103166
-0.113764
-0.12821
-0.146983
-0.169732
-0.194767
-0.218331
-0.234759
-0.23681
-0.215934
-0.163279
-0.0709349
0.0656283
0.24453
0.454374
0.672605
0.867142
1.00212
1.04714
0.986979
0.827948
0.597871
0.339046
0.0965384
-0.094017
-0.21485
-0.267641
-0.268951
-0.241568
-0.206455
-0.177265
-0.159159
-0.151244
-0.149901
-0.15143
-0.153688
-0.155967
-0.158432
-0.161236
-0.164314
-0.167355
-0.169955
-0.171717
-0.172188
-0.171007
-0.167871
-0.162922
-0.156674
-0.150018
-0.144023
-0.139628
-0.137333
-0.13708
-0.138218
-0.139979
-0.141479
-0.142221
-0.142097
-0.141262
-0.140071
-0.138889
-0.137834
-0.136814
-0.135469
-0.133441
-0.130499
-0.126706
-0.122411
-0.118204
-0.114651
-0.112022
-0.110346
-0.109298
-0.10847
-0.107495
-0.106242
-0.104831
-0.103501
-0.102522
-0.102075
-0.102145
-0.102652
-0.103387
-0.104083
-0.104638
-0.10492
-0.105026
-0.105047
-0.105147
-0.105404
-0.105874
-0.106512
-0.107301
-0.108259
-0.10936
-0.110623
-0.112014
-0.113588
-0.115383
-0.117481
-0.120132
-0.123486
-0.127509
-0.131964
-0.136329
-0.13996
-0.142265
-0.14289
-0.141652
-0.138491
-0.133258
-0.125693
-0.115408
-0.102198
-0.0861142
-0.0678127
-0.0483273
-0.0289031
-0.0105409
0.00626103
0.0215112
0.0357473
0.0495015
0.063208
0.077036
0.0906971
0.103767
0.115711
0.126047
0.134452
0.140783
0.145106
0.147682
0.14894
0.149333
0.149324
0.149173
0.148897
0.148431
0.147649
0.146501
0.14503
0.143467
0.142074
0.141069
0.140394
0.139841
0.139031
0.137641
0.13564
0.133137
0.130565
0.128327
0.126736
0.125849
0.125414
0.124998
0.124148
0.122505
0.119912
0.116574
0.112656
0.108521
0.104444
0.100587
0.0969567
0.0934124
0.0898507
0.0861375
0.082326
0.0784108
0.0745379
0.0708448
0.0674505
0.0644523
0.0619311
0.0599048
0.0582942
0.0571125
0.0562498
0.0556123
0.0551829
0.0548504
0.0544899
0.0539049
0.0529708
0.0514375
0.0493204
0.0467068
0.0438295
0.0410261
0.0385272
0.0364225
0.0346002
0.032839
0.0309192
0.0288565
0.026791
0.0250686
0.0240161
0.0238877
0.0246804
0.0262799
0.0285412
0.0313132
0.0347158
0.0388829
0.0438693
0.0496643
0.0560227
0.0625759
0.0688662
0.0746195
0.0796772
0.0840702
0.0878722
0.0911113
0.0936662
0.0953378
0.0957698
0.0948808
0.0928047
0.0900227
0.0873683
0.0857988
0.0861712
0.0890054
0.0941735
0.100787
0.107205
0.111457
0.111679
0.106778
0.0967584
0.0826673
0.0662092
0.0492491
0.0332647
0.0189056
0.0061788
-0.00537009
-0.0160879
-0.0260742
-0.0350686
-0.0427247
-0.0486624
-0.0528039
-0.0553492
-0.0566768
-0.0571903
-0.0573115
-0.0571748
-0.056834
-0.0563053
-0.055704
-0.0550947
-0.0545495
-0.0541268
-0.0538417
-0.0537901
-0.054334
-0.0562876
-0.0609542
-0.0699969
-0.0848344
-0.106231
-0.133514
-0.164032
-0.192616
-0.211786
-0.212094
-0.182803
-0.113471
0.00343047
0.169048
0.374717
0.599838
0.812607
0.975206
1.05288
1.02445
0.889981
0.672841
0.414116
0.161164
-0.0456569
-0.183094
-0.24863
-0.256952
-0.231513
-0.195437
-0.164797
-0.146381
-0.139522
-0.13998
-0.143241
-0.146407
-0.148513
-0.150008
-0.151665
-0.153867
-0.156452
-0.15905
-0.161111
-0.162202
-0.162158
-0.161076
-0.159313
-0.15733
-0.155533
-0.154144
-0.15311
-0.152157
-0.150904
-0.149043
-0.146431
-0.143125
-0.139297
-0.135234
-0.131172
-0.127342
-0.123836
-0.120623
-0.117704
-0.115027
-0.11259
-0.110411
-0.108617
-0.107219
-0.106261
-0.105747
-0.10556
-0.105635
-0.105891
-0.106263
-0.106667
-0.106933
-0.106851
-0.106248
-0.105054
-0.103191
-0.100808
-0.0980582
-0.0951349
-0.0922678
-0.0897217
-0.0877169
-0.0863995
-0.0858205
-0.0858032
-0.0860896
-0.0862528
-0.0860481
-0.0854091
-0.0844769
-0.0836619
-0.0833049
-0.0836463
-0.0847594
-0.0864686
-0.0885447
-0.0907588
-0.093009
-0.0952496
-0.0974355
-0.0993337
-0.100703
-0.101001
-0.0996637
-0.096203
-0.0902226
-0.0815109
-0.0700649
-0.0560983
-0.0400911
-0.0227068
-0.00469743
0.0130652
0.0298617
0.0450518
0.0581942
0.0690942
0.077825
0.0845575
0.0896814
0.0936167
0.0967602
0.099386
0.101643
0.10352
0.104923
0.105778
0.106186
0.106331
0.106471
0.106845
0.107622
0.108729
0.109948
0.11093
0.111387
0.111073
0.109862
0.107713
0.104587
0.10062
0.0960004
0.0910963
0.0862388
0.0818021
0.0779621
0.074724
0.0718926
0.069216
0.0664229
0.0633838
0.0601826
0.0570304
0.0541225
0.0516514
0.0497031
0.0482461
0.0471074
0.0460455
0.0448701
0.0434258
0.041663
0.0396998
0.0375684
0.0353229
0.0330286
0.0306338
0.0281067
0.0253891
0.0224468
0.0193153
0.0160339
0.0127162
0.00953683
0.00662039
0.00415961
0.00229522
0.00122728
0.00097436
0.00156799
0.00290566
0.00478754
0.00703811
0.00937847
0.0115974
0.0134754
0.0147649
0.0153549
0.0151167
0.0141427
0.0127348
0.0113836
0.010735
0.0113471
0.0136465
0.0177566
0.02342
0.0301984
0.0373494
0.0441337
0.0499058
0.0543233
0.0575429
0.0600057
0.0624687
0.0655897
0.0696788
0.0746374
0.0797323
0.0840165
0.0866335
0.0871207
0.0857496
0.0832681
0.0807418
0.0792728
0.0795482
0.0816067
0.0846327
0.0873283
0.0880594
0.0855302
0.0790038
0.0686138
0.0551831
0.0399254
0.0242199
0.00918024
-0.00442104
-0.0162078
-0.0259338
-0.0334257
-0.0386074
-0.0416116
-0.0428509
-0.0429875
-0.0427864
-0.042933
-0.0437717
-0.0452521
-0.047016
-0.0485167
-0.0492926
-0.0491448
-0.0480664
-0.0463652
-0.0443995
-0.0426374
-0.0413815
-0.04085
-0.0410287
-0.0417286
-0.0427893
-0.0441101
-0.0459613
-0.0490317
-0.054496
-0.0637627
-0.0779758
-0.0977036
-0.122192
-0.148772
-0.172691
-0.187136
-0.183647
-0.152963
-0.0865841
0.0205997
0.167538
0.344414
0.53159
0.701444
0.823527
0.872237
0.834529
0.714821
0.534949
0.328521
0.131628
-0.026828
-0.131789
-0.183405
-0.193722
-0.180183
-0.15926
-0.141948
-0.132677
-0.130818
-0.133241
-0.136574
-0.138538
-0.138316
-0.136226
-0.133067
-0.129613
-0.126496
-0.124043
-0.122283
-0.121064
-0.120126
-0.119253
-0.118287
-0.117248
-0.116255
-0.115457
-0.114926
-0.114674
-0.114574
-0.11446
-0.11412
-0.113413
-0.112323
-0.110909
-0.10934
-0.107756
-0.10618
-0.104554
-0.102775
-0.100754
-0.0984532
-0.0959781
-0.0934744
-0.0911139
-0.0890599
-0.0873841
-0.086145
-0.0853203
-0.0848506
-0.0845915
-0.084358
-0.0839456
-0.0832876
-0.0823768
-0.0814143
-0.0806317
-0.0802394
-0.080324
-0.0808397
-0.0816045
-0.0823723
-0.0828989
-0.0829928
-0.0825561
-0.0815621
-0.0800603
-0.0781711
-0.0760106
-0.0737328
-0.0715277
-0.0695769
-0.0680768
-0.0671884
-0.0669602
-0.0674054
-0.0683476
-0.0695914
-0.0709028
-0.0720763
-0.0729797
-0.0736167
-0.074021
-0.0742847
-0.0744503
-0.0743207
-0.0735902
-0.0717448
-0.0682239
-0.0625074
-0.0543699
-0.0439915
-0.0319453
-0.0190941
-0.00641298
0.00527846
0.0155104
0.0242358
0.0317746
0.038682
0.0454082
0.0522618
0.0592119
0.0660172
0.0724642
0.0783055
0.0834581
0.0879724
0.0919474
0.0954442
0.0984846
0.100997
0.102939
0.104229
0.104893
0.104893
0.104295
0.103126
0.101452
0.0994519
0.0972665
0.0951259
0.0931999
0.0916144
0.0903608
0.0893391
0.0883164
0.0870611
0.0853883
0.0833311
0.0809639
0.0785463
0.0763803
0.0746282
0.0733298
0.0723481
0.0715283
0.070586
0.06939
0.0679511
0.0664088
0.0648431
0.0632856
0.061666
0.0598257
0.0575372
0.0547784
0.0515811
0.0481255
0.0446643
0.0414194
0.038459
0.0357295
0.0331129
0.0305334
0.0280092
0.025665
0.0238291
0.0226629
0.0223147
0.0225584
0.0231042
0.0234443
0.0232492
0.022412
0.0211415
0.0196627
0.0183349
0.0172409
0.016278
0.015204
0.0138985
0.0122958
0.0106022
0.00913226
0.00812895
0.00770882
0.00771969
0.00787272
0.00782366
0.00726174
0.00615841
0.00480727
0.00368525
0.00346566
0.00472712
0.00794594
0.0132027
0.0203118
0.0287285
0.0377166
0.0464418
0.0542473
0.0607146
0.0657675
0.0697194
0.0731477
0.0766524
0.0807339
0.085463
0.0904867
0.0950502
0.0982378
0.0992876
0.0979311
0.0945362
0.0901765
0.0862863
0.0842991
0.0851435
0.0888939
0.0945717
0.100376
0.104097
0.10382
0.0985428
0.0883553
0.0744101
0.0585243
0.0425105
0.0277888
0.0150584
0.00438752
-0.00454192
-0.0121102
-0.0185185
-0.0238722
-0.028189
-0.0315788
-0.0342179
-0.0364027
-0.0384013
-0.0403407
-0.0421671
-0.0437022
-0.0446685
-0.0450055
-0.0447598
-0.0443753
-0.0442538
-0.0449115
-0.046518
-0.0488958
-0.0514151
-0.0535135
-0.0546604
-0.0547492
-0.0541487
-0.0537554
-0.0548309
-0.0589189
-0.0675758
-0.0819945
-0.102675
-0.128948
-0.158492
-0.186848
-0.207657
-0.212878
-0.193458
-0.140336
-0.0466074
0.0900787
0.264439
0.46179
0.65771
0.821436
0.922088
0.936908
0.85844
0.698265
0.484888
0.256371
0.050088
-0.106796
-0.202866
-0.242392
-0.240656
-0.216801
-0.187521
-0.163234
-0.147707
-0.140183
-0.137882
-0.138086
-0.139118
-0.140505
-0.142198
-0.144204
-0.146309
-0.148202
-0.149422
-0.149661
-0.148771
-0.146662
-0.143566
-0.139741
-0.135658
-0.131771
-0.12852
-0.126169
-0.124828
-0.124268
-0.124082
-0.123834
-0.123216
-0.122125
-0.120731
-0.119216
-0.117715
-0.116195
-0.114531
-0.112566
-0.110328
-0.108132
-0.106387
-0.105467
-0.105562
-0.106396
-0.107393
-0.107929
-0.10744
-0.1058
-0.103124
-0.099841
-0.0964556
-0.0935391
-0.0913579
-0.0901561
-0.0898601
-0.0902779
-0.0910109
-0.0916574
-0.0917833
-0.0911769
-0.0897503
-0.0876812
-0.0853119
-0.0829543
-0.0809092
-0.0792837
-0.0781027
-0.0772885
-0.0768256
-0.0767448
-0.0771572
-0.0782668
-0.0801681
-0.0827933
-0.0859464
-0.0891939
-0.0921278
-0.094381
-0.0959162
-0.0967971
-0.0972895
-0.097459
-0.0971883
-0.0960475
-0.0934678
-0.0888792
-0.0820795
-0.0732573
-0.062892
-0.051851
-0.0409904
-0.0310368
-0.0224051
-0.0152223
-0.00935597
-0.00448138
-0.000276724
0.00370886
0.00777504
0.0122637
0.017445
0.0234535
0.0302794
0.0378194
0.0457766
0.0538143
0.0616856
0.0691378
0.0760109
0.0822233
0.087569
0.0918529
0.0949147
0.0966862
0.0972924
0.0971363
0.0967739
0.0966941
0.0971683
0.0981803
0.0993829
0.100161
0.0999885
0.0984073
0.0952816
0.0907745
0.0852239
0.079213
0.0733989
0.0683514
0.0645616
0.0621994
0.0611169
0.0609952
0.061395
0.0619441
0.0624149
0.0626705
0.0626524
0.0622996
0.0614516
0.0600604
0.0579938
0.0553676
0.0523184
0.0489714
0.045476
0.0418722
0.0382476
0.0346968
0.0313958
0.0284081
0.0258604
0.0235959
0.0213552
0.0188204
0.0157493
0.0121598
0.00834582
0.00475321
0.00182079
-0.000283616
-0.00158856
-0.00240332
-0.00308419
-0.00378609
-0.00441116
-0.00483722
-0.00501026
-0.00518065
-0.00594688
-0.00791606
-0.0113664
-0.0158611
-0.0204512
-0.0239292
-0.0253813
-0.024574
-0.0223225
-0.0198876
-0.0186975
-0.0196651
-0.0228812
-0.0276537
-0.0328413
-0.0374035
-0.0405136
-0.0418374
-0.0414532
-0.039695
-0.0369363
-0.0336803
-0.030349
-0.0272896
-0.0245677
-0.0220416
-0.0192354
-0.0155351
-0.0104116
-0.00371393
0.00418971
0.0126949
0.0208337
0.027716
0.0329543
0.0365695
0.0391576
0.0417083
0.0452018
0.0502265
0.0567248
0.064093
0.0710612
0.0763438
0.0789613
0.0786879
0.0759703
0.0719521
0.0678857
0.0649591
0.0639057
0.0649033
0.0677871
0.0720873
0.0770515
0.08182
0.0855282
0.0872896
0.0865741
0.0831151
0.0769977
0.0685435
0.0581369
0.0460126
0.0323171
0.0172067
0.00115482
-0.0151235
-0.0305342
-0.0440409
-0.0548393
-0.0626836
-0.0678086
-0.0708201
-0.0722533
-0.0726056
-0.0721732
-0.0710319
-0.0693201
-0.067219
-0.0651078
-0.0633997
-0.0623571
-0.0620978
-0.0625501
-0.0633559
-0.0641821
-0.0648513
-0.0654052
-0.0663062
-0.0683078
-0.0725773
-0.0805004
-0.093372
-0.112026
-0.136407
-0.164983
-0.194184
-0.218383
-0.230293
-0.221703
-0.18424
-0.110577
0.00405678
0.15987
0.350131
0.559647
0.76443
0.934283
1.03836
1.053
0.969113
0.796531
0.562931
0.307407
0.0704814
-0.116298
-0.236856
-0.292197
-0.296611
-0.270851
-0.23474
-0.202314
-0.18036
-0.169568
-0.167118
-0.169236
-0.172847
-0.176073
-0.178114
-0.178725
-0.177849
-0.175654
-0.172416
-0.168656
-0.164829
-0.161301
-0.158256
-0.155718
-0.153498
-0.151356
-0.149242
-0.147097
-0.145016
-0.143161
-0.141742
-0.140953
-0.140899
-0.141521
-0.142572
-0.143579
-0.143963
-0.143275
-0.141337
-0.138347
-0.134762
-0.131228
-0.128308
-0.126301
-0.125323
-0.125092
-0.125236
-0.125242
-0.124654
-0.123049
-0.120294
-0.116521
-0.112012
-0.10725
-0.102678
-0.0987123
-0.0955665
-0.0932894
-0.0919425
-0.0916018
-0.0921932
-0.0936237
-0.0956886
-0.0979825
-0.100036
-0.101435
-0.101958
-0.101615
-0.100711
-0.0996846
-0.0990201
-0.0991518
-0.100194
-0.102118
-0.104597
-0.107315
-0.109927
-0.112269
-0.114288
-0.116148
-0.118097
-0.120246
-0.122634
-0.125099
-0.127261
-0.128491
-0.128285
-0.126102
-0.1216
-0.114701
-0.105632
-0.0949305
-0.083374
-0.0718114
-0.0610258
-0.0515567
-0.0435481
-0.0367421
-0.0306013
-0.0244081
-0.0175709
-0.00960803
-0.000208906
0.0107178
0.0229559
0.0362456
0.0501247
0.0640005
0.0773178
0.0896386
0.100613
0.110018
0.117888
0.124196
0.129094
0.132715
0.135287
0.137138
0.138677
0.140203
0.141959
0.143954
0.145965
0.147758
0.149017
0.149553
0.149395
0.148668
0.147493
0.146009
0.144313
0.142447
0.140513
0.13873
0.13733
0.136454
0.136229
0.136496
0.136943
0.137199
0.136793
0.135275
0.13242
0.128234
0.122966
0.117169
0.111474
0.106541
0.102833
0.100467
0.0992752
0.0988643
0.0986898
0.0983611
0.0975942
0.0962016
0.0941917
0.0915086
0.0881596
0.084149
0.0796509
0.0750315
0.0706687
0.0670483
0.0644278
0.0628231
0.0619342
0.0612973
0.060409
0.0589002
0.0566522
0.0537141
0.0503397
0.046709
0.0431119
0.0396201
0.0362919
0.0330688
0.0299118
0.0266592
0.0233017
0.0199365
0.0167212
0.0139668
0.0119509
0.0108577
0.0106706
0.0111169
0.0117771
0.0121701
0.0119904
0.0110794
0.00960695
0.00795348
0.00655825
0.00585339
0.0060219
0.00714963
0.00912699
0.0118845
0.0151989
0.0190228
0.0232246
0.0276785
0.0322015
0.036634
0.0407957
0.0447097
0.0485825
0.0527276
0.0574645
0.0630276
0.0693911
0.0763436
0.0834624
0.0902922
0.0963779
0.101485
0.10535
0.107792
0.108699
0.107915
0.105519
0.101815
0.0973599
0.0929225
0.0894327
0.0876017
0.0878727
0.0899104
0.0925179
0.0938855
0.0921132
0.0857884
0.0744003
0.0586377
0.0400077
0.0205343
0.00200902
-0.0143537
-0.0278434
-0.0383066
-0.0458111
-0.0504464
-0.0524714
-0.0523234
-0.0507087
-0.0485511
-0.0466998
-0.0457132
-0.0457893
-0.0466895
-0.0479727
-0.0490509
-0.0496673
-0.0497784
-0.0496129
-0.0494151
-0.0492576
-0.0490605
-0.0486133
-0.0478274
-0.0468734
-0.0466128
-0.0484798
-0.0543256
-0.0660569
-0.08494
-0.111145
-0.143125
-0.176921
-0.20609
-0.222314
-0.215712
-0.176162
-0.0947319
0.0339527
0.208747
0.419231
0.6441
0.852281
1.00781
1.07835
1.04461
0.907548
0.690305
0.432831
0.18101
-0.0260233
-0.165534
-0.234741
-0.247438
-0.226287
-0.19372
-0.1655
-0.148597
-0.142803
-0.144328
-0.148839
-0.153473
-0.156939
-0.159161
-0.160416
-0.160929
-0.160734
-0.159949
-0.158679
-0.157114
-0.155465
-0.153838
-0.15225
-0.150723
-0.149132
-0.147293
-0.144956
-0.141948
-0.138194
-0.133932
-0.129375
-0.125069
-0.121444
-0.118812
-0.11725
-0.116564
-0.116397
-0.116307
-0.11588
-0.114924
-0.113399
-0.111394
-0.109133
-0.106811
-0.10467
-0.10296
-0.101869
-0.101587
-0.102036
-0.103042
-0.104201
-0.105031
-0.105107
-0.104169
-0.102196
-0.0994281
-0.0962814
-0.0931713
-0.0904922
-0.0884646
-0.0871795
-0.086683
-0.0869333
-0.0877997
-0.0891879
-0.0907988
-0.0923012
-0.0933786
-0.0938211
-0.0936224
-0.0930774
-0.0925295
-0.0923715
-0.0927121
-0.0934844
-0.0944003
-0.0951859
-0.0957176
-0.0959474
-0.0959953
-0.0960433
-0.0960813
-0.0960881
-0.0959228
-0.0954383
-0.0944382
-0.0925627
-0.089289
-0.0840175
-0.0762156
-0.0655754
-0.0524394
-0.0376482
-0.0223945
-0.00791939
0.00495961
0.016056
0.0256659
0.0344508
0.043026
0.0515992
0.0600904
0.0681727
0.0755119
0.0818555
0.0871495
0.0914876
0.0949574
0.0976257
0.0995589
0.100764
0.101329
0.101254
0.100539
0.0992364
0.0974301
0.0952518
0.0929982
0.0908929
0.0890417
0.0874381
0.085846
0.0839912
0.0817597
0.0792051
0.0765805
0.074308
0.0727606
0.0720415
0.0721026
0.0725803
0.0730777
0.0731875
0.072653
0.0714218
0.0696507
0.0677325
0.0660616
0.064956
0.0646064
0.0649015
0.0654744
0.0658881
0.0657021
0.0645713
0.062368
0.0590779
0.05484
0.0499376
0.0447256
0.0396718
0.0352798
0.031908
0.0296044
0.0281718
0.0269551
0.0254982
0.0232996
0.0203182
0.0168385
0.0133285
0.0102586
0.00793273
0.00643836
0.00564287
0.00527279
0.00500999
0.00466379
0.0040813
0.00315149
0.00187571
0.00014872
-0.00193063
-0.00428356
-0.0067535
-0.00909
-0.011075
-0.0125096
-0.0133061
-0.0135838
-0.0136058
-0.0135893
-0.0138616
-0.0143737
-0.0148736
-0.0148314
-0.013507
-0.0102196
-0.00459116
0.00331595
0.0129862
0.0234626
0.0337316
0.0428868
0.0503025
0.0558923
0.0599118
0.0630705
0.0659974
0.0693847
0.0736344
0.0787269
0.0842935
0.0896354
0.0938733
0.096305
0.0963657
0.0940327
0.089791
0.0846254
0.0799306
0.0771148
0.0774457
0.0814518
0.0886911
0.0976193
0.105848
0.110788
0.110355
0.103665
0.0913239
0.0750824
0.0573855
0.0404303
0.0256284
0.0132812
0.00286877
-0.00654486
-0.0156009
-0.0244655
-0.0328679
-0.0403333
-0.0463843
-0.0509278
-0.0542149
-0.0567667
-0.0592509
-0.0620893
-0.0654734
-0.0692327
-0.0729025
-0.0759892
-0.0779289
-0.0782644
-0.0767581
-0.073394
-0.0685356
-0.0628371
-0.0572688
-0.0532563
-0.0524499
-0.0566619
-0.0674747
-0.0857385
-0.111485
-0.143369
-0.178041
-0.210025
-0.231391
-0.231872
-0.199845
-0.124405
0.00104041
0.174624
0.382433
0.597771
0.784478
0.905109
0.931205
0.852938
0.683546
0.456522
0.216284
0.00523563
-0.147667
-0.232674
-0.258195
-0.24388
-0.212044
-0.180323
-0.15811
-0.147201
-0.144841
-0.146982
-0.150419
-0.153436
-0.155513
-0.156763
-0.157258
-0.157057
-0.156149
-0.154657
-0.152746
-0.150633
-0.14846
-0.146266
-0.144039
-0.141708
-0.139134
-0.136266
-0.132993
-0.129383
-0.125635
-0.122079
-0.119044
-0.116726
-0.115172
-0.114199
-0.113535
-0.112939
-0.11222
-0.111389
-0.110511
-0.109539
-0.108388
-0.10688
-0.104924
-0.102509
-0.0998133
-0.0971569
-0.0948468
-0.0930731
-0.0917726
-0.0907266
-0.0896733
-0.0882354
-0.0863095
-0.0839125
-0.0812014
-0.0785002
-0.0759895
-0.0738622
-0.0721722
-0.0709278
-0.0701353
-0.069793
-0.0699682
-0.0706747
-0.0718479
-0.0732923
-0.0748544
-0.0763291
-0.0776474
-0.0788494
-0.0800625
-0.0813953
-0.0827903
-0.0841326
-0.085202
-0.0857716
-0.0857357
-0.0851465
-0.0841733
-0.0831478
-0.082357
-0.0819424
-0.0819868
-0.0822756
-0.0823897
-0.0816753
-0.0793659
-0.0746951
-0.0671183
-0.0565024
-0.0433028
-0.028455
-0.0131361
0.00141315
0.0142949
0.025069
0.0338778
0.0412323
0.0477776
0.0541264
0.0605836
0.0671627
0.0736955
0.0798488
0.0852462
0.0896009
0.0926494
0.0942589
0.0944546
0.0933466
0.0912306
0.0885256
0.0856623
0.0830741
0.0810151
0.0795472
0.078641
0.0780896
0.0776476
0.0770467
0.0761472
0.0748619
0.0732109
0.0712533
0.069017
0.0665811
0.064071
0.0616505
0.0595845
0.058087
0.0571921
0.0566898
0.0561423
0.0549186
0.052607
0.0491418
0.0448653
0.0404675
0.0366648
0.0338493
0.0320132
0.0307628
0.029463
0.0275908
0.02485
0.0214397
0.0178421
0.0147344
0.0126455
0.0118763
0.0124152
0.0138963
0.0157962
0.0175869
0.0187648
0.0190378
0.0183042
0.0166421
0.0142579
0.0115484
0.00890459
0.00676579
0.00550045
0.00527737
0.0060616
0.00760334
0.00944754
0.0110165
0.0118224
0.01149
0.0100292
0.00760543
0.00465028
0.00165164
-0.000965043
-0.00294001
-0.00423913
-0.00501962
-0.0055166
-0.00583903
-0.00592543
-0.00547133
-0.00401729
-0.0011463
0.00337697
0.0094346
0.0165854
0.0241318
0.0314275
0.0380143
0.0436043
0.0482513
0.0521166
0.0554328
0.0585749
0.0619116
0.0657012
0.0701771
0.0752789
0.0807091
0.0859202
0.0901768
0.0928385
0.093506
0.0922873
0.0897644
0.0870351
0.0853871
0.0859453
0.0893497
0.0952345
0.102182
0.107847
0.109723
0.105801
0.0952202
0.078731
0.0582249
0.0363763
0.0157625
-0.00183277
-0.0156182
-0.0257557
-0.0329347
-0.0379798
-0.0416205
-0.0443991
-0.0467241
-0.0489946
-0.0514533
-0.0542278
-0.0572766
-0.0603145
-0.0628851
-0.0645064
-0.0649602
-0.0641936
-0.0623414
-0.059708
-0.0567296
-0.0538802
-0.0516375
-0.0506964
-0.0521327
-0.0573526
-0.0678903
-0.0850546
-0.109454
-0.140261
-0.174498
-0.206744
-0.229076
-0.232086
-0.206025
-0.142726
-0.0374929
0.109158
0.291079
0.496514
0.709089
0.909264
1.07608
1.18906
1.23087
1.19056
1.06709
0.871428
0.626203
0.362444
0.113684
-0.0913806
-0.235094
-0.313847
-0.336891
-0.321675
-0.28797
-0.252235
-0.224777
-0.209018
-0.20348
-0.204185
-0.207149
-0.2095
-0.21007
-0.208778
-0.206213
-0.203019
-0.199827
-0.196986
-0.194745
-0.193084
-0.191863
-0.19097
-0.190235
-0.18963
-0.189099
-0.188761
-0.188603
-0.188539
-0.188424
-0.188133
-0.187517
-0.186645
-0.185496
-0.184189
-0.182671
-0.180808
-0.17837
-0.175225
-0.171509
-0.167752
-0.164609
-0.162649
-0.161982
-0.162241
-0.162577
-0.162041
-0.160061
-0.156585
-0.152203
-0.147819
-0.144249
-0.141884
-0.14063
-0.140127
-0.139917
-0.139679
-0.139363
-0.138906
-0.138448
-0.138012
-0.137608
-0.137245
-0.13694
-0.136871
-0.137095
-0.137623
-0.13835
-0.139032
-0.139466
-0.139574
-0.139456
-0.139392
-0.139612
-0.140406
-0.141914
-0.144146
-0.147081
-0.150566
-0.154346
-0.15788
-0.160329
-0.160581
-0.157407
-0.149741
-0.13702
-0.119285
-0.0972404
-0.0720347
-0.0452365
-0.0183126
0.00715792
0.0299012
0.0489398
0.0637268
0.0742188
0.0808638
0.0844647
0.0861078
0.0867035
0.0870764
0.0877066
0.0888372
0.0904838
0.0925387
0.0947765
0.0968823
0.0984797
0.0992639
0.0991299
0.0982364
0.097076
0.0962603
0.0963382
0.0974705
0.0994623
0.101594
0.102888
0.102507
0.100155
0.0961243
0.091343
0.0870147
0.084262
0.0836086
0.0849193
0.0873355
0.0896262
0.0906132
0.0894065
0.0857564
0.079937
0.0726801
0.0648852
0.0575034
0.0512772
0.0466114
0.0437372
0.0424475
0.0424322
0.0432078
0.0441983
0.044584
0.0437072
0.04105
0.0365231
0.0305915
0.0241668
0.0183464
0.0139656
0.0112672
0.00992139
0.0091772
0.00827951
0.00687165
0.00520325
0.00383876
0.00345682
0.00430926
0.00614305
0.00816695
0.00938341
0.00908202
0.00688749
0.00315602
-0.0013624
-0.0056563
-0.00882883
-0.0103312
-0.0101006
-0.00860943
-0.00668451
-0.00538051
-0.00554599
-0.00767724
-0.0116393
-0.0166407
-0.0215414
-0.0251145
-0.0264469
-0.0251261
-0.021248
-0.0152619
-0.00776031
0.000664949
0.00945369
0.0180428
0.0259174
0.0325309
0.0375309
0.0409542
0.0433482
0.0456246
0.0487616
0.0535607
0.0601889
0.0682802
0.0769987
0.0853204
0.0922058
0.0969612
0.0991496
0.0986485
0.0956543
0.0905902
0.0841257
0.0772366
0.0709167
0.0661009
0.0633136
0.0626872
0.063991
0.0666629
0.0699567
0.0729778
0.0747662
0.0743288
0.0707386
0.0633647
0.0520425
0.0371315
0.0197563
0.00154501
-0.0156622
-0.0300581
-0.0403956
-0.0462847
-0.0481948
-0.0473572
-0.0454233
-0.0439665
-0.0439054
-0.0455259
-0.0483728
-0.0516231
-0.0544681
-0.0563485
-0.0571127
-0.0568427
-0.0556951
-0.0539746
-0.0520061
-0.0501049
-0.0488227
-0.0488992
-0.0514176
-0.0575697
-0.0685492
-0.0852404
-0.107923
-0.135669
-0.165661
-0.192714
-0.209203
-0.205183
-0.169446
-0.0915941
0.0348068
0.208857
0.41929
0.643249
0.848504
0.999189
1.06441
1.02691
0.888933
0.672988
0.416308
0.161163
-0.0557365
-0.211412
-0.299641
-0.328928
-0.316756
-0.282793
-0.243335
-0.208852
-0.183808
-0.168435
-0.160449
-0.156963
-0.155583
-0.154822
-0.153949
-0.152879
-0.151843
-0.15105
-0.150588
-0.150388
-0.150256
-0.149973
-0.14938
-0.148512
-0.147455
-0.146331
-0.145157
-0.143831
-0.142142
-0.13984
-0.136826
-0.133229
-0.129516
-0.126224
-0.123905
-0.122783
-0.122662
-0.122958
-0.122892
-0.121703
-0.119078
-0.115148
-0.11046
-0.105755
-0.101724
-0.0987139
-0.0967375
-0.0954546
-0.0944466
-0.0933186
-0.0918545
-0.090018
-0.0879478
-0.0858248
-0.0838318
-0.0821912
-0.0810063
-0.0803537
-0.0802709
-0.0807126
-0.0816448
-0.0829282
-0.0844175
-0.0858343
-0.0869482
-0.0876229
-0.0878809
-0.0879913
-0.0883594
-0.0893659
-0.0912842
-0.0941052
-0.097434
-0.100817
-0.103658
-0.105681
-0.106883
-0.107623
-0.108429
-0.109763
-0.111934
-0.114778
-0.117802
-0.120159
-0.120812
-0.118764
-0.113088
-0.103214
-0.0890038
-0.070993
-0.0502847
-0.028585
-0.00780759
0.0104455
0.0252573
0.0365706
0.0452835
0.0527666
0.0604024
0.0692392
0.0795339
0.0909513
0.102579
0.113419
0.122636
0.129714
0.134559
0.137412
0.138677
0.138813
0.138273
0.13746
0.136507
0.13555
0.134637
0.133725
0.132753
0.13169
0.130558
0.129374
0.128173
0.127012
0.125861
0.124739
0.123712
0.122826
0.122184
0.121773
0.121456
0.120925
0.119816
0.117755
0.114556
0.110217
0.105062
0.09947
0.0939277
0.0887487
0.0842485
0.0804912
0.0773942
0.0748608
0.0726821
0.0706298
0.0684525
0.0659626
0.0631264
0.0600805
0.0570766
0.0544139
0.0522707
0.0507583
0.0498996
0.0495794
0.0497392
0.0502029
0.0507617
0.051056
0.0507051
0.0493995
0.0469472
0.0435846
0.0397561
0.0360902
0.0331147
0.0311425
0.03008
0.0295102
0.0290072
0.0280664
0.0264513
0.0242431
0.0217569
0.01938
0.0175606
0.0165833
0.016553
0.0174803
0.0191001
0.0211634
0.0234356
0.0257049
0.0279192
0.0301803
0.0326419
0.0354217
0.0385358
0.0417636
0.0448167
0.0473711
0.0492473
0.0504204
0.0511503
0.0518721
0.0529893
0.0549194
0.0579296
0.0621292
0.0674207
0.0735094
0.0798799
0.0858493
0.0907332
0.0939232
0.0951199
0.0944375
0.0923031
0.0896312
0.0874091
0.0865819
0.0878631
0.0914983
0.0971311
0.103701
0.109445
0.112348
0.110569
0.102955
0.0895333
0.0714542
0.0506747
0.029493
0.00986275
-0.00697978
-0.0205819
-0.0309983
-0.0385958
-0.0437223
-0.0467586
-0.0481534
-0.0485016
-0.048491
-0.0486901
-0.0493834
-0.0505075
-0.0517213
-0.0524796
-0.0524322
-0.0516732
-0.0505879
-0.0496778
-0.0492207
-0.0492877
-0.0495818
-0.0497818
-0.0498724
-0.0504742
-0.0530887
-0.059647
-0.0720351
-0.0914525
-0.117883
-0.149576
-0.182762
-0.211539
-0.228355
-0.224661
-0.191946
-0.122856
-0.0127255
0.139068
0.327999
0.543397
0.768412
0.980726
1.15448
1.26389
1.288
1.21624
1.05249
0.816189
0.539558
0.260954
0.0165547
-0.167778
-0.281358
-0.329071
-0.327267
-0.297294
-0.258833
-0.22556
-0.203663
-0.193185
-0.190575
-0.19162
-0.193183
-0.193876
-0.193715
-0.193339
-0.193384
-0.194044
-0.195064
-0.195952
-0.196241
-0.195708
-0.194433
-0.192744
-0.191034
-0.18946
-0.188142
-0.186835
-0.185282
-0.183256
-0.180663
-0.177448
-0.173655
-0.1693
-0.164602
-0.159686
-0.154833
-0.150459
-0.146987
-0.1448
-0.144067
-0.144696
-0.146274
-0.14811
-0.149546
-0.150005
-0.149287
-0.147488
-0.145062
-0.142512
-0.140318
-0.138759
-0.137698
-0.136922
-0.136026
-0.134707
-0.1328
-0.130351
-0.127613
-0.124993
-0.122779
-0.121205
-0.12037
-0.120157
-0.120385
-0.120843
-0.121332
-0.12168
-0.12174
-0.121394
-0.120538
-0.119153
-0.117309
-0.115331
-0.113633
-0.112776
-0.113155
-0.114981
-0.118171
-0.122282
-0.126713
-0.130606
-0.133161
-0.133581
-0.131116
-0.125314
-0.115921
-0.103059
-0.0872034
-0.0690444
-0.0494806
-0.0293938
-0.00973082
0.0086863
0.0251592
0.0391602
0.0505843
0.0596275
0.0668091
0.0728339
0.0782963
0.0836163
0.088917
0.0940421
0.0987802
0.102993
0.106592
0.109646
0.112265
0.114524
0.116322
0.117587
0.118142
0.117836
0.116681
0.114782
0.112401
0.109788
0.107319
0.105155
0.103375
0.101872
0.100447
0.0987599
0.0966269
0.0939206
0.0907275
0.0873974
0.0841669
0.0814087
0.0793473
0.0779274
0.0770516
0.0764192
0.0757658
0.0747792
0.0732823
0.0712515
0.068772
0.0659542
0.0629904
0.0600239
0.0571272
0.054358
0.0517179
0.0492269
0.0468099
0.044499
0.0421641
0.0397899
0.0373079
0.0347739
0.0322679
0.029715
0.0271749
0.0245198
0.0217627
0.0190641
0.016676
0.0148982
0.0138962
0.0136155
0.0137989
0.0139296
0.0135686
0.0125617
0.0110252
0.00929001
0.00783129
0.0069257
0.00654257
0.00641452
0.00616416
0.00540551
0.00397749
0.00194487
-0.000420946
-0.00279118
-0.00483233
-0.00633859
-0.00717981
-0.00727935
-0.00670817
-0.00557249
-0.00414119
-0.00272769
-0.00164182
-0.00109434
-0.00114532
-0.00154616
-0.0019543
-0.0018945
-0.00104959
0.000916973
0.00400685
0.00813741
0.0130837
0.018607
0.0245433
0.0306733
0.0368766
0.0430464
0.0491765
0.0553248
0.0617149
0.0686189
0.0761398
0.0841256
0.0920641
0.0990489
0.104129
0.106537
0.105893
0.102455
0.0971045
0.0909681
0.0853885
0.0814929
0.0800812
0.0813512
0.0848794
0.0894641
0.0934325
0.0948741
0.0921349
0.0843798
0.0716645
0.0551398
0.0365566
0.0179479
0.00100344
-0.0131529
-0.0241731
-0.032197
-0.0376786
-0.0411359
-0.0430947
-0.0441194
-0.0447384
-0.045444
-0.0466785
-0.0486573
-0.0514646
-0.0548673
-0.058502
-0.0620201
-0.0651279
-0.067611
-0.0695338
-0.0709335
-0.0719601
-0.0727983
-0.0735223
-0.0741953
-0.0747871
-0.0752738
-0.075709
-0.0762523
-0.0771387
-0.0790002
-0.0827816
-0.0897138
-0.101195
-0.118194
-0.14104
-0.168796
-0.198698
-0.225689
-0.242665
-0.240664
-0.209563
-0.139715
-0.0245228
0.136106
0.332808
0.544963
0.742245
0.889921
0.957195
0.92627
0.798848
0.597223
0.359016
0.126757
-0.0636172
-0.191288
-0.253679
-0.263309
-0.240677
-0.206497
-0.17569
-0.155296
-0.145668
-0.143796
-0.14571
-0.148561
-0.151018
-0.152786
-0.154016
-0.15473
-0.154819
-0.154092
-0.15254
-0.15025
-0.147537
-0.144669
-0.141775
-0.138789
-0.135625
-0.132067
-0.128096
-0.123788
-0.119474
-0.115502
-0.112139
-0.10955
-0.107766
-0.106623
-0.105977
-0.105538
-0.104985
-0.104037
-0.102351
-0.0996887
-0.0960935
-0.0918677
-0.0875635
-0.0838951
-0.0814407
-0.0805803
-0.0812261
-0.0829627
-0.0851525
-0.0871618
-0.0884912
-0.0890242
-0.0887264
-0.0879092
-0.0867429
-0.0854138
-0.0840329
-0.0826523
-0.081255
-0.079853
-0.0784831
-0.0771139
-0.075785
-0.0744606
-0.0731415
-0.07185
-0.0706387
-0.069565
-0.068641
-0.0678932
-0.0672528
-0.0666228
-0.0659474
-0.0651308
-0.0641813
-0.0631616
-0.0622438
-0.0616441
-0.0616694
-0.0625542
-0.064493
-0.0674392
-0.0710716
-0.0747226
-0.0775276
-0.0786285
-0.0772759
-0.0730774
-0.066086
-0.0567943
-0.0460159
-0.0347188
-0.0237322
-0.0136852
-0.00481249
0.00300719
0.0101687
0.0171546
0.0244877
0.0324469
0.0411049
0.0502596
0.0595602
0.068622
0.0771215
0.0848092
0.0916444
0.097607
0.102612
0.106531
0.10917
0.110436
0.110385
0.109321
0.1077
0.105924
0.104295
0.102879
0.101587
0.100367
0.0991958
0.0981821
0.0975198
0.097327
0.0975719
0.0980217
0.0982648
0.0978897
0.0965342
0.0941488
0.0908992
0.0872682
0.0837939
0.0809961
0.0791683
0.0781994
0.0776687
0.0769687
0.0755181
0.0729993
0.0693542
0.064927
0.0602151
0.0557657
0.0519839
0.0490014
0.0467696
0.0451142
0.0437315
0.042421
0.0409526
0.0392279
0.0371992
0.0348562
0.0323375
0.0297475
0.027283
0.0250309
0.0229834
0.0209737
0.0188103
0.0162527
0.0131602
0.00950048
0.00545562
0.00127728
-0.00260727
-0.00577644
-0.00790129
-0.00887144
-0.00884933
-0.00818025
-0.00741364
-0.00703445
-0.00729102
-0.00822116
-0.00952759
-0.0108461
-0.0117746
-0.0121134
-0.0118467
-0.0111734
-0.0104114
-0.00988342
-0.00977111
-0.0100917
-0.0108032
-0.0117847
-0.0130533
-0.0146587
-0.0167327
-0.0192641
-0.022106
-0.0248469
-0.0269814
-0.028055
-0.0278569
-0.0265212
-0.0243834
-0.0218631
-0.019295
-0.0168312
-0.0143816
-0.0116687
-0.00839877
-0.00418661
0.00122421
0.00793189
0.0157477
0.0242466
0.0327542
0.0404703
0.0468053
0.0515147
0.0549264
0.0576879
0.0605419
0.0640108
0.0681652
0.0725804
0.0766073
0.0795865
0.0812155
0.0816258
0.0813917
0.0812797
0.0820705
0.0843773
0.0884256
0.0941944
0.101322
0.10901
0.116087
0.121045
0.12237
0.118878
0.110181
0.0968446
0.0803712
0.0626894
0.0455582
0.0301383
0.0167332
0.00489517
-0.00611831
-0.0168971
-0.0275509
-0.0376547
-0.0465523
-0.0535648
-0.0583437
-0.0610293
-0.0621942
-0.0626293
-0.0630693
-0.0640205
-0.0655416
-0.0672767
-0.068711
-0.0693487
-0.0689634
-0.0676716
-0.0659137
-0.0640752
-0.0625748
-0.0616561
-0.061413
-0.0619021
-0.0632716
-0.066031
-0.0710614
-0.0794181
-0.0922879
-0.110556
-0.134472
-0.163135
-0.193903
-0.221865
-0.239818
-0.238422
-0.20691
-0.13501
-0.0159202
0.150112
0.352662
0.569784
0.769862
0.917404
0.981856
0.946259
0.813542
0.607
0.364634
0.128844
-0.0648816
-0.196153
-0.2624
-0.2758
-0.256286
-0.224027
-0.193669
-0.172371
-0.16094
-0.15665
-0.155805
-0.155637
-0.154821
-0.153139
-0.150824
-0.148159
-0.145305
-0.142476
-0.139955
-0.137994
-0.13685
-0.136558
-0.136837
-0.137177
-0.136967
-0.13573
-0.133296
-0.129968
-0.126283
-0.122905
-0.120358
-0.11879
-0.118048
-0.117779
-0.117476
-0.116767
-0.115472
-0.113485
-0.110768
-0.107425
-0.103589
-0.0994928
-0.0955358
-0.0922016
-0.0899034
-0.0888451
-0.0889325
-0.0896651
-0.0904617
-0.0906503
-0.0898485
-0.0880232
-0.0854571
-0.0826016
-0.0799691
-0.0778886
-0.0764737
-0.0755779
-0.0748943
-0.0741354
-0.0731177
-0.0718451
-0.0705205
-0.0694758
-0.0690534
-0.0694862
-0.070791
-0.0727536
-0.0750849
-0.0773858
-0.0793583
-0.0809136
-0.0820623
-0.0829784
-0.0837268
-0.0843442
-0.0846329
-0.0844424
-0.0837096
-0.0826376
-0.0816291
-0.0811297
-0.0814713
-0.0826648
-0.0843754
-0.0860245
-0.08698
-0.0865761
-0.0843945
-0.0801286
-0.0736771
-0.0652125
-0.0553039
-0.0448116
-0.0347474
-0.0259953
-0.0190464
-0.0138037
-0.0097109
-0.00595781
-0.00175134
0.00339976
0.00963072
0.0168915
0.0250392
0.0340484
0.0440308
0.0549787
0.0668368
0.0792185
0.0914161
0.102703
0.112297
0.119569
0.124213
0.126315
0.126091
0.124174
0.121247
0.117988
0.114931
0.112347
0.110153
0.108128
0.105994
0.103642
0.101146
0.0988588
0.0970022
0.0957842
0.0951668
0.0949819
0.0949802
0.0950629
0.0951266
0.095205
0.0952958
0.09527
0.0948807
0.0937876
0.091705
0.0884359
0.0840653
0.078839
0.0732211
0.067627
0.0623955
0.0576854
0.053561
0.0498212
0.0463237
0.0430684
0.0401567
0.0376983
0.0358371
0.0344022
0.033039
0.0312629
0.0287691
0.0256059
0.0222955
0.0196063
0.018291
0.0186667
0.0204099
0.0226814
0.0244493
0.0247976
0.0232483
0.0198115
0.0148559
0.00898926
0.00292793
-0.00260195
-0.00701235
-0.00986599
-0.0110861
-0.0110674
-0.0105254
-0.0102884
-0.0109785
-0.0126375
-0.0148874
-0.0170425
-0.0185512
-0.0192078
-0.019253
-0.0191361
-0.0192818
-0.0198507
-0.0205938
-0.0211674
-0.0212715
-0.020883
-0.0201976
-0.0196502
-0.0195502
-0.0200313
-0.0210232
-0.0223968
-0.0238737
-0.0252175
-0.0263179
-0.0270744
-0.0275077
-0.0277044
-0.0277727
-0.0278652
-0.027905
-0.027728
-0.0269872
-0.0252648
-0.0222454
-0.0178148
-0.0119593
-0.0049697
0.00281522
0.0109983
0.0191369
0.0267899
0.0335115
0.0391648
0.043745
0.0474667
0.0507431
0.0540423
0.0575717
0.0613954
0.0654128
0.0695485
0.0736853
0.0777805
0.081786
0.0855692
0.0887671
0.091038
0.0920277
0.0915997
0.0899964
0.0878816
0.0859832
0.0852138
0.0860898
0.0885942
0.0919527
0.0947673
0.0953392
0.0920042
0.0837425
0.0704757
0.0530905
0.0332051
0.0126981
-0.00663262
-0.0234006
-0.0368108
-0.0464043
-0.0521823
-0.0544987
-0.0540264
-0.0518038
-0.0490981
-0.0470286
-0.0464631
-0.0477153
-0.0506511
-0.0546167
-0.0589545
-0.0629672
-0.0662129
-0.068443
-0.0695679
-0.0696843
-0.0689497
-0.0676376
-0.0662551
-0.065835
-0.0678128
-0.0740588
-0.0863951
-0.105938
-0.132407
-0.16356
-0.195095
-0.221257
-0.236171
-0.234918
-0.214644
-0.174449
-0.114117
-0.0324997
0.0730303
0.205662
0.366322
0.549556
0.740368
0.913677
1.03838
1.08537
1.0368
0.893345
0.675867
0.420846
0.170401
-0.0388233
-0.184702
-0.262911
-0.284474
-0.269274
-0.238103
-0.206798
-0.183809
-0.170954
-0.166
-0.165288
-0.165761
-0.165796
-0.165064
-0.163873
-0.162634
-0.161716
-0.161225
-0.160965
-0.160729
-0.16029
-0.159594
-0.158722
-0.157858
-0.157105
-0.156484
-0.155945
-0.15534
-0.154722
-0.154169
-0.153608
-0.152896
-0.151751
-0.149727
-0.146573
-0.142255
-0.137071
-0.131537
-0.126183
-0.121371
-0.11723
-0.113813
-0.111072
-0.108992
-0.107637
-0.107045
-0.107241
-0.108003
-0.109049
-0.110019
-0.110543
-0.110406
-0.109527
-0.108104
-0.106368
-0.104594
-0.103008
-0.101629
-0.100396
-0.0990453
-0.0974281
-0.0954305
-0.0932252
-0.0910663
-0.0893106
-0.0881896
-0.0878589
-0.0883072
-0.0894217
-0.0910929
-0.0932705
-0.0958446
-0.098671
-0.101661
-0.104684
-0.107675
-0.110735
-0.114014
-0.1177
-0.121864
-0.126326
-0.13072
-0.134593
-0.137416
-0.138645
-0.137882
-0.134596
-0.128405
-0.118946
-0.106092
-0.0901214
-0.071758
-0.0521286
-0.0325213
-0.0142307
0.00183139
0.0152233
0.026038
0.0347236
0.0419645
0.0484198
0.0546712
0.0610915
0.0677539
0.074554
0.0813021
0.0877863
0.0938898
0.0997193
0.105368
0.110869
0.116199
0.121096
0.125229
0.128376
0.130607
0.132151
0.133501
0.13497
0.136691
0.138625
0.140468
0.141956
0.142919
0.143169
0.1427
0.141469
0.139395
0.136389
0.132471
0.127812
0.122819
0.118072
0.114119
0.111363
0.109979
0.1098
0.110373
0.111159
0.111607
0.11142
0.110497
0.108935
0.10683
0.104341
0.101433
0.0980015
0.0939323
0.0892087
0.0838782
0.0783555
0.0730514
0.0683916
0.064622
0.0616878
0.0593312
0.0571507
0.054859
0.0522748
0.0495648
0.0469195
0.0446184
0.0428556
0.041687
0.0409696
0.0406007
0.0404362
0.0403111
0.0400926
0.0396514
0.0388924
0.0377435
0.0362616
0.0345895
0.0329089
0.0314015
0.0300376
0.0286659
0.0269576
0.0246282
0.021504
0.0175899
0.0131783
0.00866925
0.004625
0.00146287
-0.000417438
-0.000946095
-0.000209905
0.00138864
0.00337921
0.00511858
0.00608652
0.0060308
0.00492818
0.00301567
0.000647805
-0.0017423
-0.00375128
-0.0050123
-0.00507863
-0.00362037
-0.000323527
0.00494623
0.0121566
0.0209418
0.0307684
0.0409644
0.0507722
0.0595809
0.067031
0.0729924
0.0776158
0.0813877
0.0848477
0.0886262
0.0930052
0.0980075
0.103269
0.108017
0.111417
0.112837
0.111957
0.109024
0.10473
0.100132
0.0963868
0.0944907
0.0950985
0.0983653
0.103727
0.109898
0.115014
0.117048
0.114353
0.106127
0.0925744
0.0749773
0.0551853
0.0350845
0.0162942
-0.000208348
-0.0139534
-0.0248218
-0.0329852
-0.0386637
-0.0422619
-0.0444404
-0.0457801
-0.0469867
-0.0485203
-0.0505814
-0.0532047
-0.0561253
-0.0590623
-0.0617866
-0.0640602
-0.0656444
-0.0662593
-0.0656782
-0.0637814
-0.0607519
-0.0571323
-0.0539075
-0.0524229
-0.0543068
-0.0611156
-0.0741423
-0.094062
-0.120482
-0.151594
-0.184074
-0.213087
-0.233059
-0.23883
-0.226273
-0.193049
-0.138203
-0.0615284
0.0374074
0.159679
0.306035
0.474921
0.659969
0.847819
1.01751
1.14289
1.19792
1.16409
1.03699
0.830105
0.57321
0.305468
0.0656769
-0.117506
-0.231739
-0.281545
-0.283772
-0.260236
-0.2302
-0.206061
-0.192432
-0.188229
-0.189799
-0.193345
-0.196427
-0.198092
-0.198395
-0.197743
-0.196482
-0.194874
-0.193006
-0.190831
-0.18809
-0.184698
-0.180629
-0.176108
-0.1716
-0.16757
-0.164363
-0.162118
-0.160681
-0.159787
-0.159168
-0.15857
-0.157962
-0.15728
-0.156546
-0.15567
-0.154603
-0.153319
-0.151769
-0.150074
-0.148235
-0.14632
-0.144332
-0.142296
-0.140187
-0.13808
-0.13603
-0.134184
-0.132538
-0.131061
-0.12962
-0.128046
-0.12622
-0.124025
-0.121439
-0.118523
-0.115362
-0.112267
-0.109593
-0.107769
-0.107101
-0.107726
-0.109483
-0.111878
-0.114291
-0.11603
-0.116726
-0.116262
-0.114941
-0.113305
-0.111963
-0.111482
-0.112206
-0.114092
-0.116867
-0.120037
-0.123043
-0.125531
-0.127309
-0.128331
-0.128565
-0.12792
-0.126265
-0.123286
-0.11868
-0.112222
-0.103829
-0.0936419
-0.081937
-0.0691414
-0.0557786
-0.042344
-0.0292768
-0.01687
-0.00520718
0.00578006
0.0161853
0.0261885
0.0358148
0.0450836
0.0540103
0.0625429
0.0705775
0.0780683
0.0848376
0.0906992
0.0955392
0.099297
0.102104
0.104253
0.10604
0.107648
0.109136
0.110352
0.111049
0.110965
0.109947
0.107962
0.105147
0.101787
0.0983314
0.0953037
0.0931869
0.0922721
0.092477
0.0934146
0.0943555
0.0945535
0.0934317
0.090785
0.0869093
0.0823685
0.077739
0.0735426
0.0700628
0.0673209
0.0652139
0.0636064
0.0623058
0.0612006
0.0601886
0.0590738
0.0577174
0.0559946
0.0538139
0.0512942
0.0485727
0.0458732
0.0433965
0.0411719
0.0392672
0.0374776
0.0356981
0.0337918
0.0317206
0.0294729
0.0269977
0.0242823
0.0212563
0.0179134
0.0143263
0.0106496
0.00711258
0.00398086
0.00138882
-0.000718288
-0.00260461
-0.00452462
-0.00670517
-0.00923393
-0.0117962
-0.0141551
-0.0158693
-0.016713
-0.0166384
-0.0157904
-0.0145147
-0.0131029
-0.0117923
-0.0106811
-0.00974924
-0.0089894
-0.00833838
-0.00789863
-0.00783357
-0.00830132
-0.00944213
-0.0112934
-0.0136252
-0.0161822
-0.0185305
-0.0203769
-0.0215145
-0.0219141
-0.021667
-0.0209449
-0.0200269
-0.0189901
-0.0178825
-0.0164954
-0.014504
-0.0114311
-0.00698714
-0.00100767
0.0063319
0.0145255
0.022881
0.0306949
0.0373734
0.0426463
0.0465964
0.049636
0.0524874
0.0559737
0.0607761
0.0673651
0.0755472
0.084769
0.0939432
0.101817
0.107312
0.10984
0.109411
0.106607
0.102348
0.0975911
0.0932248
0.0898914
0.0881552
0.0885132
0.0911176
0.0956175
0.100896
0.105125
0.106146
0.102154
0.0923269
0.077115
0.0581084
0.0374883
0.0172794
-0.00103711
-0.016763
-0.0297677
-0.0401287
-0.0479023
-0.0531689
-0.0560613
-0.0570316
-0.056811
-0.056215
-0.0559474
-0.0564232
-0.0577215
-0.0595559
-0.0616068
-0.0635953
-0.0653852
-0.0669023
-0.0679571
-0.0684959
-0.068422
-0.0678604
-0.0672523
-0.0676201
-0.0703493
-0.0771601
-0.0895889
-0.108632
-0.13444
-0.16565
-0.198938
-0.228673
-0.247156
-0.245017
-0.212008
-0.138801
-0.0192337
0.146684
0.350291
0.572961
0.786917
0.959322
1.05899
1.06412
0.968742
0.785851
0.544974
0.285361
0.0462108
-0.142327
-0.265112
-0.322781
-0.328695
-0.302383
-0.26318
-0.225515
-0.197273
-0.180382
-0.172909
-0.171291
-0.172308
-0.173726
-0.174558
-0.174517
-0.173733
-0.172588
-0.171377
-0.17027
-0.169253
-0.168124
-0.166628
-0.164632
-0.162105
-0.159319
-0.156616
-0.15432
-0.152577
-0.151372
-0.150322
-0.149032
-0.147176
-0.144599
-0.141262
-0.137285
-0.132755
-0.127846
-0.122646
-0.117399
-0.112416
-0.108144
-0.104972
-0.10314
-0.102614
-0.103131
-0.104198
-0.105356
-0.106193
-0.106474
-0.106145
-0.105262
-0.103936
-0.102389
-0.100766
-0.0992332
-0.097935
-0.0968621
-0.095997
-0.0951872
-0.0942422
-0.0929734
-0.0913434
-0.0892618
-0.086897
-0.0844179
-0.0821222
-0.0802179
-0.0789085
-0.0783347
-0.0786247
-0.0797827
-0.0817784
-0.0844316
-0.0875291
-0.0907857
-0.0939625
-0.0968818
-0.0995285
-0.101868
-0.10402
-0.105884
-0.107263
-0.107793
-0.106921
-0.104091
-0.0988289
-0.0908646
-0.0800515
-0.0665679
-0.0507933
-0.0333747
-0.0151119
0.00294312
0.0197665
0.0344377
0.046467
0.0557563
0.0627192
0.0679589
0.0722392
0.0761282
0.0799233
0.0836858
0.0872452
0.0903494
0.0928565
0.0945942
0.0957462
0.0964594
0.0970504
0.0977515
0.0987048
0.0998824
0.101076
0.10204
0.102516
0.102356
0.101546
0.100176
0.0983571
0.0962385
0.093874
0.0913278
0.0885663
0.0857175
0.0828068
0.0799434
0.0771459
0.0743044
0.0712519
0.0677205
0.0635636
0.0589271
0.0540445
0.0494617
0.0456659
0.0430231
0.0416642
0.0415262
0.0423289
0.0437582
0.0454523
0.047025
0.0481237
0.0484196
0.047628
0.0456543
0.0424962
0.0384157
0.0338593
0.029234
0.0249287
0.0212061
0.0181337
0.0155887
0.0134397
0.0114904
0.00962218
0.00776224
0.00591863
0.0040691
0.00233019
0.0008344
-0.000268904
-0.000920575
-0.00108588
-0.00101492
-0.000936994
-0.00106927
-0.00159052
-0.00239282
-0.00330011
-0.00418372
-0.00499976
-0.00599557
-0.00751606
-0.00978582
-0.012896
-0.0165422
-0.0201793
-0.0231915
-0.0251977
-0.0260185
-0.0259621
-0.025549
-0.0253324
-0.025675
-0.0266466
-0.0279454
-0.0291262
-0.0296484
-0.0291456
-0.0275523
-0.0251542
-0.0223325
-0.0195073
-0.0169335
-0.0145201
-0.0118754
-0.00852954
-0.00398308
0.00188993
0.00887532
0.0165549
0.0243871
0.0318925
0.0387248
0.0447407
0.049874
0.0541879
0.0577493
0.0606593
0.0632683
0.0660899
0.069742
0.0746765
0.0810354
0.0882507
0.0953253
0.101001
0.104115
0.104113
0.101134
0.0962176
0.0908132
0.086613
0.0848221
0.086099
0.0902297
0.0961176
0.10179
0.105064
0.10393
0.0971953
0.0847984
0.0678339
0.048125
0.0277965
0.00852388
-0.00856563
-0.0229579
-0.0345155
-0.0433317
-0.0495079
-0.053272
-0.0550698
-0.0555853
-0.0556473
-0.0558787
-0.0567514
-0.0582691
-0.060233
-0.0621994
-0.063886
-0.0651246
-0.0660159
-0.0665629
-0.066925
-0.0669937
-0.0666694
-0.0659383
-0.0650922
-0.0647352
-0.0659133
-0.0700062
-0.0784207
-0.0922981
-0.112311
-0.138465
-0.169492
-0.202331
-0.231616
-0.249339
-0.244826
-0.206056
-0.122106
0.0129078
0.195724
0.410667
0.629578
0.815797
0.93256
0.953081
0.869419
0.69594
0.466272
0.223957
0.0102012
-0.146837
-0.237503
-0.269165
-0.260122
-0.231573
-0.200536
-0.176617
-0.162412
-0.156218
-0.154692
-0.155055
-0.155623
-0.155803
-0.155447
-0.154465
-0.153016
-0.151328
-0.149787
-0.148846
-0.14871
-0.149334
-0.150252
-0.150671
-0.149745
-0.146891
-0.142042
-0.135735
-0.128947
-0.122885
-0.118465
-0.115981
-0.115109
-0.115056
-0.114943
-0.114167
-0.112629
-0.110595
-0.108586
-0.107009
-0.105991
-0.105525
-0.105335
-0.10515
-0.104787
-0.104058
-0.102979
-0.1015
-0.0996353
-0.0973734
-0.094671
-0.0915693
-0.0882002
-0.0848421
-0.0818886
-0.0797569
-0.0787916
-0.0790633
-0.0803383
-0.0820672
-0.0836714
-0.0846233
-0.084727
-0.0840598
-0.0829921
-0.0818971
-0.0811329
-0.0808003
-0.0809283
-0.0814796
-0.0824149
-0.0839012
-0.0859726
-0.0886199
-0.0916072
-0.0945422
-0.0971412
-0.0992649
-0.101013
-0.102754
-0.104951
-0.107779
-0.110949
-0.113741
-0.114995
-0.113595
-0.108651
-0.0997814
-0.0872267
-0.0716227
-0.0537932
-0.0346487
-0.0149186
0.00486962
0.0243251
0.0431273
0.060875
0.0771532
0.0913858
0.103065
0.111791
0.117442
0.120291
0.120998
0.120398
0.119366
0.118647
0.118611
0.119165
0.12008
0.120868
0.121158
0.120636
0.119136
0.116742
0.113583
0.109867
0.105885
0.101937
0.0982874
0.0953216
0.093245
0.0921213
0.0917655
0.0917925
0.0917712
0.091301
0.0901485
0.0883396
0.0859692
0.0832098
0.0801589
0.0769424
0.0735902
0.0703298
0.0674552
0.0652547
0.0638781
0.0633439
0.0633375
0.0632821
0.0625799
0.0606485
0.0572491
0.0524649
0.0467482
0.0407156
0.03509
0.0303891
0.0269615
0.0248013
0.0236806
0.02319
0.022917
0.0223436
0.0211099
0.0190468
0.0161196
0.0125138
0.00861889
0.00471616
0.00100812
-0.00225992
-0.00491867
-0.00683124
-0.00783491
-0.00779219
-0.00672772
-0.00489832
-0.00291652
-0.00137727
-0.000804362
-0.00138285
-0.00298389
-0.00510677
-0.00725253
-0.00894022
-0.0100573
-0.0106592
-0.0111221
-0.0117903
-0.0129461
-0.0148862
-0.0174929
-0.0207217
-0.0242554
-0.0275768
-0.0301226
-0.0313588
-0.0310394
-0.0293866
-0.0268949
-0.0242602
-0.0220703
-0.0205882
-0.0194231
-0.017945
-0.0153605
-0.0111501
-0.00516715
0.00228952
0.0106124
0.0191203
0.0272721
0.0347249
0.0413474
0.0471079
0.052019
0.0561784
0.0594968
0.0621077
0.0641415
0.0658404
0.0675692
0.069612
0.0720634
0.0749556
0.0779679
0.0806505
0.0825727
0.0834454
0.0831897
0.0821597
0.0809985
0.0803774
0.0809367
0.0829953
0.0863633
0.0903464
0.093732
0.094999
0.0927139
0.0859974
0.0745687
0.0590105
0.040576
0.020868
0.00161524
-0.0156476
-0.0298461
-0.0403909
-0.0471382
-0.0505036
-0.0511759
-0.050107
-0.0484184
-0.0469438
-0.0462364
-0.0465271
-0.0477567
-0.0497342
-0.0521663
-0.0547652
-0.0571747
-0.0590642
-0.0600962
-0.0599498
-0.0584994
-0.0559503
-0.0527757
-0.0500671
-0.0494796
-0.0530482
-0.0627947
-0.0802542
-0.105842
-0.138282
-0.173931
-0.206572
-0.22759
-0.226003
-0.189537
-0.107001
0.0282171
0.213905
0.435259
0.664103
0.862291
0.990205
1.01785
0.934753
0.754796
0.513228
0.256832
0.030412
-0.13519
-0.229352
-0.260495
-0.249004
-0.218141
-0.186356
-0.163537
-0.15162
-0.147802
-0.147895
-0.14849
-0.148051
-0.14641
-0.144226
-0.142142
-0.140514
-0.139525
-0.139038
-0.138787
-0.13863
-0.138405
-0.138181
-0.138102
-0.138401
-0.139049
-0.139846
-0.140453
-0.140408
-0.139357
-0.137188
-0.134073
-0.130318
-0.126305
-0.122341
-0.118573
-0.115036
-0.111748
-0.10865
-0.105918
-0.10366
-0.101994
-0.100984
-0.100481
-0.100313
-0.100289
-0.100129
-0.0997488
-0.0991717
-0.0984568
-0.0976079
-0.0967104
-0.0957959
-0.0947611
-0.0936434
-0.0923365
-0.0908437
-0.0890898
-0.0870058
-0.0846054
-0.0819787
-0.0793104
-0.0769299
-0.0752402
-0.0746118
-0.075271
-0.0773067
-0.0806323
-0.0850171
-0.0901644
-0.0956305
-0.10096
-0.105656
-0.109347
-0.111675
-0.112621
-0.112398
-0.111437
-0.110295
-0.109608
-0.109748
-0.110837
-0.112598
-0.114329
-0.115182
-0.11414
-0.110251
-0.102895
-0.0916803
-0.0766479
-0.058319
-0.0374766
-0.0152346
0.00712905
0.0284258
0.0477
0.0644066
0.0784067
0.0898394
0.0990745
0.106514
0.112534
0.117487
0.121665
0.125345
0.128814
0.13234
0.136012
0.139854
0.143695
0.147269
0.150258
0.152341
0.153321
0.15301
0.151451
0.148769
0.145179
0.140926
0.136249
0.13142
0.126707
0.122172
0.117976
0.11415
0.110794
0.107877
0.105473
0.103521
0.102015
0.100946
0.100159
0.0994935
0.0987782
0.0978611
0.0965633
0.0948192
0.0924274
0.0892482
0.0851712
0.0802244
0.0746311
0.0689087
0.0636967
0.0595929
0.0570236
0.0559109
0.0557406
0.0558472
0.0555206
0.0543819
0.0523045
0.049514
0.0462848
0.0428979
0.0395652
0.0363197
0.0332665
0.0305493
0.0283102
0.0268032
0.0260899
0.0261072
0.0267117
0.0275454
0.0283382
0.0288631
0.0289333
0.0284855
0.0275296
0.026052
0.024124
0.0218797
0.0194871
0.017097
0.0147744
0.0125576
0.0103835
0.00820762
0.00597136
0.00378124
0.00172994
-8.41916e-5
-0.00161395
-0.00285944
-0.00381812
-0.00442506
-0.00445555
-0.0035967
-0.00155001
0.0019081
0.00679854
0.0128656
0.0197352
0.0269522
0.034026
0.0406695
0.0467779
0.0522061
0.057014
0.0612802
0.0652369
0.0692174
0.0737099
0.0790441
0.0854211
0.0924276
0.0991158
0.104302
0.106812
0.105919
0.101755
0.0951345
0.0875782
0.0807795
0.0763068
0.07517
0.0777655
0.0836818
0.0917311
0.100081
0.10643
0.108669
0.10519
0.0954914
0.0801958
0.0609646
0.0399238
0.0192621
0.000567377
-0.0150959
-0.0274621
-0.0365721
-0.0427387
-0.0464448
-0.0482939
-0.0490517
-0.0495865
-0.0504953
-0.0521462
-0.0545359
-0.0573535
-0.0600605
-0.0622315
-0.0635569
-0.0638869
-0.0634373
-0.0623617
-0.0609936
-0.0596272
-0.0583227
-0.0570642
-0.0557118
-0.0540881
-0.0522426
-0.0505165
-0.0498929
-0.0519711
-0.058703
-0.0719247
-0.0929852
-0.122021
-0.157138
-0.19371
-0.22437
-0.239035
-0.225594
-0.171788
-0.0681713
0.0880172
0.289217
0.515088
0.733747
0.906929
0.999191
0.98806
0.871763
0.671206
0.425066
0.178918
-0.0273625
-0.169548
-0.242967
-0.259682
-0.241007
-0.20898
-0.179704
-0.160748
-0.152513
-0.151544
-0.153553
-0.155477
-0.156011
-0.155182
-0.153397
-0.151048
-0.148325
-0.145302
-0.142126
-0.138973
-0.136104
-0.133715
-0.131928
-0.130755
-0.130134
-0.129938
-0.12992
-0.12974
-0.129132
-0.127793
-0.125698
-0.122873
-0.119561
-0.1161
-0.112827
-0.109967
-0.107662
-0.105856
-0.104362
-0.102976
-0.101485
-0.0997649
-0.0978033
-0.0957351
-0.0936897
-0.0919436
-0.0906234
-0.0898277
-0.0895854
-0.0897806
-0.0902828
-0.0908234
-0.0910929
-0.0908036
-0.089642
-0.0874479
-0.0842027
-0.0802366
-0.0759792
-0.0719407
-0.0685522
-0.0660679
-0.0645121
-0.0637338
-0.0635484
-0.063686
-0.0639861
-0.0642574
-0.0643838
-0.0643143
-0.0640985
-0.063822
-0.0637212
-0.0640124
-0.0648659
-0.0662582
-0.0681083
-0.0702171
-0.0723477
-0.0743149
-0.0759773
-0.0773046
-0.0782849
-0.0788419
-0.0786703
-0.0773933
-0.0744754
-0.0693594
-0.0617235
-0.0514732
-0.038805
-0.0242304
-0.00857591
0.00724716
0.0222922
0.0356824
0.0469349
0.0558813
0.0628428
0.0685249
0.0738002
0.0793532
0.0855817
0.0923298
0.0990056
0.104824
0.108952
0.110934
0.110702
0.108688
0.105563
0.102088
0.0988697
0.096148
0.0939409
0.092072
0.0902673
0.0883463
0.0863162
0.0841375
0.0818896
0.0797622
0.0776028
0.0754386
0.0731832
0.0708349
0.0685443
0.0665132
0.0648762
0.063705
0.0628608
0.0619492
0.0606527
0.0586892
0.0560771
0.0531318
0.0502766
0.0479572
0.0463495
0.0453709
0.0446664
0.0437788
0.0423864
0.0403452
0.0376881
0.0347056
0.0316111
0.028493
0.0254426
0.0223904
0.0193442
0.0164757
0.0139149
0.0118102
0.0101949
0.00885712
0.00745342
0.00579337
0.00381535
0.00175257
-8.49922e-5
-0.00137073
-0.00208238
-0.0024142
-0.00272546
-0.00337608
-0.00454934
-0.00612848
-0.00784172
-0.00951194
-0.0110318
-0.0126046
-0.0144517
-0.0167665
-0.0194317
-0.0220772
-0.0241276
-0.0251578
-0.0250231
-0.0239691
-0.0225627
-0.0214864
-0.021195
-0.0218436
-0.0231944
-0.0248235
-0.0262606
-0.0272762
-0.0278038
-0.0279922
-0.0281003
-0.0282749
-0.0284826
-0.0286466
-0.0286586
-0.0284053
-0.0280189
-0.0276007
-0.02726
-0.0269357
-0.0263956
-0.0251964
-0.0229387
-0.019282
-0.0140359
-0.00731439
0.000560792
0.00926936
0.0184
0.027571
0.0364691
0.0447054
0.051871
0.0577006
0.0621147
0.0651579
0.0672215
0.0688363
0.0704502
0.0723808
0.074628
0.076975
0.0790938
0.0807675
0.0818124
0.0822764
0.0822048
0.0815822
0.0804454
0.0787596
0.0766547
0.074479
0.0727602
0.0721332
0.0732995
0.0766585
0.0820041
0.0883703
0.0941505
0.0973651
0.0961451
0.0894352
0.0771712
0.0603305
0.0406554
0.0200809
0.000341222
-0.017362
-0.0323132
-0.0443016
-0.0532058
-0.0592818
-0.0629166
-0.0647377
-0.0655392
-0.0660535
-0.0668071
-0.0680794
-0.0697421
-0.0714508
-0.0729046
-0.0738318
-0.0742211
-0.0741672
-0.073757
-0.0730766
-0.072148
-0.0709782
-0.0697598
-0.0688814
-0.0689472
-0.0708148
-0.0755473
-0.0841978
-0.0977274
-0.116774
-0.141408
-0.170829
-0.202888
-0.233769
-0.257983
-0.268513
-0.257385
-0.216219
-0.137616
-0.017023
0.144795
0.339237
0.548348
0.745487
0.899106
0.979377
0.966398
0.856838
0.666859
0.429005
0.183956
-0.0300935
-0.186915
-0.277206
-0.307989
-0.297147
-0.265934
-0.231963
-0.20581
-0.190732
-0.184912
-0.184503
-0.185903
-0.186971
-0.186979
-0.186006
-0.184308
-0.182073
-0.179345
-0.176089
-0.172399
-0.168408
-0.164372
-0.160409
-0.156679
-0.15325
-0.150118
-0.14732
-0.144821
-0.142783
-0.14132
-0.140576
-0.140595
-0.141319
-0.142492
-0.143677
-0.144308
-0.14394
-0.142289
-0.139356
-0.135473
-0.131182
-0.127174
-0.12394
-0.121708
-0.120407
-0.119591
-0.118707
-0.117253
-0.115041
-0.11204
-0.10846
-0.104733
-0.101192
-0.0982411
-0.096145
-0.0951248
-0.0952048
-0.0962117
-0.0977709
-0.0992663
-0.100141
-0.100043
-0.0988843
-0.0969298
-0.0946535
-0.092453
-0.0905547
-0.0889038
-0.0873477
-0.0856933
-0.0838882
-0.0820911
-0.0806756
-0.0800329
-0.0804902
-0.0820749
-0.08462
-0.0876041
-0.0905076
-0.0927678
-0.0940366
-0.0941313
-0.093224
-0.0915949
-0.0895882
-0.0874149
-0.0850592
-0.0822668
-0.0785043
-0.0732535
-0.0661319
-0.0571294
-0.0467828
-0.0359913
-0.0258544
-0.0173914
-0.0112748
-0.0075773
-0.00584929
-0.00510959
-0.00408723
-0.00171829
0.00283842
0.00976501
0.0187333
0.0289796
0.0396319
0.0498909
0.0593206
0.0678322
0.0755656
0.0826542
0.0891398
0.0948625
0.0994733
0.102674
0.104326
0.104485
0.103569
0.102139
0.100752
0.0998144
0.0994805
0.099512
0.09952
0.0989711
0.0975432
0.0951855
0.0922534
0.0894139
0.087275
0.0862236
0.0861348
0.0864707
0.0864354
0.0853197
0.0827346
0.0788499
0.0742545
0.069636
0.0656589
0.0626688
0.0605619
0.0591569
0.0580154
0.0567755
0.0551806
0.0531204
0.0506462
0.0477957
0.0446754
0.0413753
0.0378857
0.0343488
0.0308324
0.027459
0.0243841
0.0216412
0.0194297
0.0177059
0.0165216
0.0158926
0.0158668
0.0162388
0.0166526
0.0166845
0.0157634
0.0135095
0.0100229
0.00567148
0.0011734
-0.00267743
-0.00528872
-0.00651976
-0.0067069
-0.00645518
-0.00649793
-0.00739889
-0.00943248
-0.0125121
-0.0162619
-0.0201693
-0.0237228
-0.026464
-0.0283284
-0.0293535
-0.0298609
-0.0302606
-0.0309546
-0.0320332
-0.0333561
-0.034611
-0.0353417
-0.0352954
-0.0344863
-0.0332124
-0.0318303
-0.030798
-0.0303034
-0.0303688
-0.0308358
-0.031455
-0.0320572
-0.032514
-0.0328153
-0.0330461
-0.0332497
-0.0336065
-0.0342076
-0.0351296
-0.036334
-0.0376397
-0.0386966
-0.0392209
-0.0389661
-0.0379728
-0.0364832
-0.0348359
-0.0333406
-0.0320586
-0.0307863
-0.0291221
-0.0266686
-0.0229822
-0.0180063
-0.0118308
-0.0047331
0.00289169
0.0107074
0.0183021
0.0253773
0.031696
0.0370359
0.041457
0.0450534
0.0481768
0.0514082
0.0553482
0.0605579
0.0673426
0.0753891
0.0838789
0.091526
0.0970362
0.0994658
0.098641
0.0951079
0.0900677
0.0849193
0.0807884
0.0783627
0.077762
0.0787667
0.0808734
0.0834074
0.0854811
0.0860068
0.0837723
0.0777109
0.0672227
0.0525599
0.0348633
0.0159791
-0.00195754
-0.0172624
-0.0290097
-0.0371435
-0.0424633
-0.046141
-0.0493461
-0.0529143
-0.0572946
-0.062454
-0.0680474
-0.0734898
-0.0782601
-0.0818341
-0.0839562
-0.0846918
-0.0843643
-0.0836111
-0.0830565
-0.0831482
-0.0839771
-0.0852295
-0.0862474
-0.0862121
-0.0844897
-0.0809758
-0.0762572
-0.0714354
-0.0680936
-0.0679084
-0.0721836
-0.0816323
-0.09635
-0.11598
-0.139768
-0.166895
-0.196116
-0.225312
-0.250854
-0.267441
-0.267961
-0.243873
-0.186349
-0.0881674
0.0536221
0.234703
0.441199
0.649271
0.827752
0.944286
0.97351
0.904955
0.747564
0.528503
0.286449
0.0612773
-0.116284
-0.231158
-0.284847
-0.291426
-0.27063
-0.240688
-0.2139
-0.195563
-0.185506
-0.18063
-0.177448
-0.173631
-0.16835
-0.161871
-0.155005
-0.148583
-0.143292
-0.139541
-0.13755
-0.13732
-0.138662
-0.141199
-0.144437
-0.147742
-0.150502
-0.152276
-0.152765
-0.151919
-0.149982
-0.147279
-0.144131
-0.140751
-0.137218
-0.133505
-0.129553
-0.125432
-0.121241
-0.117156
-0.113305
-0.109825
-0.106742
-0.104136
-0.102099
-0.100784
-0.100222
-0.1003
-0.100646
-0.100853
-0.100487
-0.0994679
-0.0980489
-0.0968011
-0.0964307
-0.0973962
-0.0996473
-0.10265
-0.105434
-0.106934
-0.106423
-0.103678
-0.0992223
-0.0939117
-0.0889076
-0.0850727
-0.0829474
-0.0825343
-0.0835763
-0.0855249
-0.0878482
-0.0900513
-0.0916367
-0.0922862
-0.0919056
-0.090602
-0.0888308
-0.0872298
-0.0865119
-0.0873067
-0.0899004
-0.0941826
-0.0998653
-0.106234
-0.11259
-0.118147
-0.12216
-0.124062
-0.123256
-0.119537
-0.112903
-0.10375
-0.0928121
-0.0809298
-0.0689421
-0.057501
-0.0468887
-0.0370984
-0.027902
-0.0190163
-0.0101414
-0.00113176
0.00806764
0.0174002
0.0265259
0.0351629
0.0429029
0.0494623
0.0549063
0.0595218
0.0639485
0.0687998
0.0744813
0.0809944
0.0878604
0.0943354
0.0997825
0.103771
0.106424
0.108049
0.109144
0.110004
0.110712
0.111204
0.111385
0.111297
0.111011
0.110693
0.110359
0.109784
0.108751
0.106992
0.10449
0.101383
0.0979996
0.0946405
0.091432
0.08841
0.0855157
0.0827115
0.0800407
0.0776074
0.0755659
0.0740466
0.0730364
0.0723836
0.0718065
0.0710205
0.0698266
0.0681543
0.0661132
0.0639625
0.062024
0.0605148
0.0595198
0.0589092
0.0584481
0.0578056
0.0566914
0.0550298
0.05283
0.0501791
0.0472259
0.0440743
0.0407703
0.0373132
0.0337701
0.0302871
0.0270159
0.0241097
0.0215615
0.0193075
0.0171512
0.0148766
0.0123963
0.00985434
0.00749204
0.00565092
0.00458851
0.00452884
0.00543469
0.00706331
0.00902743
0.0108643
0.0121334
0.0125314
0.0119702
0.010645
0.00892464
0.00720942
0.00580595
0.00480837
0.00394156
0.00274844
0.000785446
-0.00214548
-0.0058257
-0.00967918
-0.0129701
-0.0149878
-0.0154868
-0.0146635
-0.0130589
-0.0113756
-0.0101574
-0.00969053
-0.00994093
-0.0106167
-0.0113993
-0.0120473
-0.0123056
-0.0120015
-0.0110171
-0.00927827
-0.00681778
-0.00382442
-0.000581038
0.00254759
0.00536099
0.00786126
0.0102662
0.0130118
0.0165719
0.0212326
0.0270929
0.0338723
0.0411707
0.0485968
0.0557769
0.0625615
0.0690191
0.0752819
0.0815374
0.0878443
0.0940499
0.0998889
0.104954
0.108834
0.111202
0.111907
0.111059
0.108977
0.10616
0.103382
0.101432
0.101035
0.102596
0.105828
0.109708
0.112535
0.112414
0.107951
0.0987365
0.0856171
0.0704125
0.0554019
0.0424629
0.0324578
0.025135
0.0192614
0.0133065
0.00607003
-0.00293327
-0.0132782
-0.0239246
-0.0336373
-0.0414484
-0.0469436
-0.0502459
-0.0520245
-0.0530364
-0.0538436
-0.054719
-0.0555016
-0.0559301
-0.0556893
-0.0547339
-0.0534067
-0.0522275
-0.0517517
-0.0521884
-0.0534475
-0.0551617
-0.0568469
-0.0583961
-0.0602291
-0.063425
-0.0695789
-0.0803422
-0.0970135
-0.120066
-0.148821
-0.180869
-0.211795
-0.23526
-0.243161
-0.226027
-0.174163
-0.0794526
0.0619061
0.246244
0.459827
0.678323
0.869403
0.998844
1.03889
0.976557
0.818638
0.591357
0.334003
0.0889121
-0.109342
-0.241521
-0.305887
-0.315063
-0.289493
-0.250001
-0.212121
-0.184076
-0.167437
-0.159711
-0.156979
-0.155958
-0.15488
-0.153262
-0.15139
-0.149677
-0.148365
-0.147496
-0.146926
-0.146394
-0.145609
-0.144257
-0.142184
-0.139346
-0.135792
-0.131888
-0.128074
-0.124698
-0.12193
-0.119685
-0.117644
-0.115358
-0.112576
-0.109255
-0.105669
-0.102226
-0.0992857
-0.0971535
-0.0958093
-0.0950789
-0.0946799
-0.0943342
-0.0938135
-0.0930002
-0.0918575
-0.0904344
-0.0888518
-0.0872845
-0.0858735
-0.0847394
-0.0839159
-0.0832814
-0.0827031
-0.0820503
-0.0812487
-0.0803146
-0.0792827
-0.0783787
-0.0776583
-0.0771783
-0.0768558
-0.0764979
-0.0758888
-0.0747838
-0.0730381
-0.0706314
-0.0677557
-0.0646431
-0.0617038
-0.059367
-0.0579119
-0.0575669
-0.058301
-0.0600254
-0.0625443
-0.0655996
-0.0689689
-0.0725177
-0.0760673
-0.0794703
-0.0825604
-0.0852068
-0.0873759
-0.0889155
-0.08971
-0.0894515
-0.0877113
-0.0839594
-0.0777451
-0.0688019
-0.0573164
-0.0439074
-0.0294875
-0.015271
-0.00232433
0.00868688
0.0175403
0.0245973
0.0305279
0.0361552
0.0421617
0.0488421
0.0562097
0.0639491
0.0716575
0.0789001
0.085371
0.0908923
0.0954069
0.0988523
0.101397
0.103256
0.104756
0.106176
0.107708
0.109317
0.110748
0.111645
0.111709
0.110902
0.109541
0.108062
0.106919
0.106314
0.106068
0.105714
0.104725
0.1028
0.0999025
0.0963981
0.0927544
0.0894816
0.0868519
0.0848464
0.0831637
0.0815528
0.0796809
0.0773825
0.0746665
0.0716599
0.0685147
0.0654161
0.0625022
0.0599411
0.0578176
0.0562368
0.055155
0.0544969
0.0540399
0.0535647
0.0528307
0.0517768
0.0503842
0.0488216
0.0471651
0.0454122
0.0434324
0.041036
0.0380046
0.0342793
0.030026
0.0257038
0.0217455
0.0186636
0.0165385
0.0152097
0.0142802
0.0131649
0.0115312
0.00922297
0.00645581
0.00354607
0.000895879
-0.00121283
-0.00267002
-0.00353685
-0.00402518
-0.00437953
-0.0047287
-0.00521018
-0.0058008
-0.00643417
-0.00703249
-0.00755451
-0.00804437
-0.00859266
-0.00928025
-0.010301
-0.011592
-0.0131626
-0.0148141
-0.0163583
-0.0175127
-0.0179991
-0.0176749
-0.0165313
-0.0148318
-0.0129368
-0.0112799
-0.0101256
-0.00952847
-0.00927091
-0.00887412
-0.00780643
-0.005539
-0.00173702
0.00371453
0.0106586
0.0187006
0.0272544
0.0356506
0.0432751
0.0497326
0.0550895
0.0596978
0.0642536
0.0693955
0.0754799
0.0823482
0.0893426
0.0955004
0.0998322
0.101731
0.101004
0.0980634
0.0936448
0.0889101
0.0850226
0.0831136
0.0839921
0.0878155
0.0938121
0.100293
0.104917
0.105421
0.10018
0.088812
0.0722121
0.0524032
0.0317193
0.0123362
-0.00438898
-0.0179818
-0.0287345
-0.0373765
-0.0447188
-0.051394
-0.0576854
-0.0636027
-0.0688591
-0.0731022
-0.0760493
-0.077627
-0.0779834
-0.0775063
-0.0766753
-0.0759198
-0.0754704
-0.0753495
-0.0754906
-0.0759923
-0.077083
-0.0793416
-0.0833056
-0.0895236
-0.0981713
-0.109166
-0.122376
-0.137957
-0.156277
-0.177948
-0.202997
-0.229874
-0.254697
-0.270754
-0.268385
-0.235898
-0.161746
-0.0383895
0.133503
0.341368
0.559647
0.752864
0.883204
0.920926
0.854121
0.693847
0.471952
0.232349
0.0181113
-0.139897
-0.229789
-0.258161
-0.243916
-0.20952
-0.173627
-0.146866
-0.132015
-0.126797
-0.127132
-0.129472
-0.131691
-0.133072
-0.133572
-0.133331
-0.132437
-0.131072
-0.129488
-0.128045
-0.126935
-0.126226
-0.125742
-0.125188
-0.124303
-0.123023
-0.121404
-0.119687
-0.117991
-0.116329
-0.114518
-0.112233
-0.10924
-0.105441
-0.100971
-0.0962134
-0.0917269
-0.0880735
-0.0856966
-0.0847436
-0.0850214
-0.085961
-0.0868793
-0.0870462
-0.0859922
-0.0836981
-0.0805374
-0.0772117
-0.0743591
-0.072457
-0.0716774
-0.07178
-0.0722835
-0.0727025
-0.0726371
-0.0718548
-0.0703849
-0.0683441
-0.0658531
-0.0630497
-0.0599456
-0.0565751
-0.0531067
-0.0497587
-0.0469864
-0.0452175
-0.0448311
-0.046004
-0.0485726
-0.0520341
-0.055711
-0.0587762
-0.060731
-0.0613167
-0.0608064
-0.0599212
-0.0594193
-0.0600151
-0.0621111
-0.0656146
-0.0700637
-0.0747569
-0.0788809
-0.0817847
-0.0829721
-0.0821647
-0.0792405
-0.0741023
-0.0666898
-0.0570008
-0.0451223
-0.0314092
-0.0164844
-0.00116928
0.013607
0.0271228
0.0389637
0.0490257
0.057551
0.0648035
0.0709507
0.0761613
0.0804576
0.083901
0.0866883
0.0890939
0.0914259
0.0939368
0.0967083
0.0997226
0.102916
0.106161
0.109309
0.112232
0.11468
0.11634
0.116813
0.115846
0.113277
0.109242
0.104165
0.0985419
0.0929523
0.0878554
0.0835083
0.0799059
0.0768884
0.0741842
0.0715043
0.0686237
0.065419
0.0619534
0.0584111
0.0550775
0.0523121
0.0503654
0.0493028
0.0490869
0.0495391
0.0502771
0.0509769
0.0512828
0.0510759
0.0502459
0.0488763
0.0470426
0.0448424
0.0423779
0.0397465
0.0370439
0.0343396
0.0317437
0.0293391
0.0271556
0.0251458
0.0233343
0.021679
0.0201216
0.0186564
0.017211
0.0157803
0.0143422
0.0128694
0.0113586
0.00986946
0.0084477
0.00714858
0.00610224
0.00530476
0.00479486
0.00449972
0.00426913
0.00394532
0.00340542
0.00255318
0.00134347
-0.000244139
-0.00219502
-0.00450123
-0.00707351
-0.009729
-0.0122402
-0.01441
-0.0160084
-0.0169901
-0.0173201
-0.0170998
-0.0164933
-0.0155628
-0.0143829
-0.013037
-0.0115952
-0.0102278
-0.00912917
-0.00846684
-0.00830163
-0.0085314
-0.00884034
-0.00891342
-0.00860203
-0.00796369
-0.00723483
-0.00668589
-0.00630182
-0.00569573
-0.00413142
-0.000667443
0.00532253
0.0139702
0.0246791
0.0363952
0.0478228
0.0579291
0.0662304
0.0728898
0.078469
0.0836099
0.0886366
0.0935356
0.0976774
0.100374
0.100975
0.0992489
0.0955272
0.0905432
0.0853531
0.08101
0.0783582
0.0779121
0.0795599
0.0825921
0.0857844
0.0874505
0.08597
0.0802861
0.0700744
0.0559682
0.0393382
0.0218315
0.00509754
-0.0098472
-0.0224959
-0.0329165
-0.0412794
-0.0478886
-0.052806
-0.0560963
-0.0579026
-0.0585804
-0.0587082
-0.0590235
-0.0601669
-0.0624983
-0.0659811
-0.0701833
-0.074408
-0.0779591
-0.080295
-0.0810883
-0.080242
-0.0779045
-0.0743385
-0.0702655
-0.066506
-0.0641234
-0.0643588
-0.0683256
-0.0768744
-0.0904533
-0.109199
-0.132933
-0.160965
-0.191559
-0.221101
-0.243493
-0.2499
-0.228998
-0.169051
-0.0611864
0.096506
0.295018
0.512582
0.716583
0.869561
0.938854
0.9062
0.774449
0.567976
0.32684
0.0950397
-0.091219
-0.212149
-0.266899
-0.269707
-0.242269
-0.205609
-0.174386
-0.155207
-0.147967
-0.149051
-0.153927
-0.159047
-0.162435
-0.163578
-0.162838
-0.160992
-0.158952
-0.157468
-0.156884
-0.157067
-0.157574
-0.157808
-0.157337
-0.155929
-0.153633
-0.150474
-0.146432
-0.141483
-0.135696
-0.129353
-0.122984
-0.117323
-0.113067
-0.110592
-0.109945
-0.11076
-0.11241
-0.114136
-0.115332
-0.115554
-0.114609
-0.112552
-0.109638
-0.106203
-0.10265
-0.0992742
-0.0963748
-0.0942106
-0.0928931
-0.0924296
-0.0926944
-0.0933076
-0.0938333
-0.093816
-0.0928566
-0.0909385
-0.0881757
-0.0848215
-0.0811906
-0.0775827
-0.0742178
-0.0713494
-0.0692739
-0.0682651
-0.0684994
-0.069943
-0.0722279
-0.0747986
-0.0771005
-0.0787176
-0.0795642
-0.0798504
-0.0799691
-0.0803353
-0.0812261
-0.0826947
-0.0846344
-0.0869658
-0.0895452
-0.0922845
-0.0951754
-0.0981286
-0.101008
-0.103641
-0.105689
-0.106684
-0.105992
-0.102773
-0.0963258
-0.0863441
-0.0731454
-0.0577367
-0.0416197
-0.0263734
-0.0131219
-0.00229197
0.00660369
0.0145614
0.0226911
