0.0408853
0.0387048
0.035949
0.0327313
0.0293433
0.0262012
0.0237087
0.0221849
0.0216999
0.0221149
0.0231423
0.0244549
0.025716
0.0267605
0.0274893
0.0278499
0.0277809
0.0271865
0.0260122
0.0242804
0.0221599
0.0200083
0.0182053
0.016971
0.0164251
0.0163857
0.016616
0.0168566
0.0168909
0.0167007
0.0163895
0.0160671
0.0158448
0.015674
0.0154424
0.014956
0.0140557
0.0127142
0.0110883
0.00963482
0.00900975
0.00993202
0.0128939
0.0180103
0.0249015
0.0328384
0.0408852
0.0483162
0.0548912
0.0607772
0.0664993
0.0726924
0.0795674
0.0868773
0.0939437
0.0998806
0.103873
0.105451
0.104408
0.10097
0.0955769
0.0888528
0.0816222
0.0748259
0.0696212
0.0668604
0.0668645
0.0690536
0.0719419
0.0734207
0.0713694
0.0642496
0.0518457
0.0351927
0.0164695
-0.00165546
-0.0168345
-0.0276967
-0.0339175
-0.0362446
-0.0359338
-0.0343345
-0.0325602
-0.0312772
-0.0306295
-0.030656
-0.0312768
-0.0324905
-0.0343311
-0.0366852
-0.0393744
-0.0421106
-0.0445695
-0.0464267
-0.0475735
-0.0481124
-0.0483197
-0.0485682
-0.0495193
-0.0521139
-0.057618
-0.0674889
-0.0830449
-0.104932
-0.132635
-0.163713
-0.193388
-0.214671
-0.218569
-0.19473
-0.132931
-0.0255236
0.129316
0.32422
0.540404
0.748317
0.912347
0.999058
0.986871
0.873597
0.678815
0.439423
0.199405
-0.00241241
-0.142112
-0.214659
-0.231506
-0.213423
-0.18206
-0.153442
-0.135432
-0.128731
-0.130068
-0.135203
-0.140688
-0.144657
-0.146512
-0.146254
-0.14421
-0.140899
-0.136968
-0.133198
-0.130397
-0.128994
-0.129048
-0.130247
-0.131918
-0.133391
-0.134129
-0.13386
-0.132536
-0.130401
-0.127707
-0.124613
-0.121217
-0.117611
-0.113883
-0.110308
-0.107217
-0.104864
-0.103377
-0.102573
-0.102046
-0.101299
-0.0999249
-0.0976927
-0.0947796
-0.0915385
-0.0883803
-0.0857752
-0.0839692
-0.0829711
-0.0827501
-0.0830882
-0.083861
-0.0848903
-0.0860792
-0.0872321
-0.0882201
-0.08884
-0.0887791
-0.0879385
-0.0862109
-0.0836604
-0.0805943
-0.0774233
-0.0746468
-0.0726383
-0.0716158
-0.0714835
-0.0719864
-0.0727113
-0.0733042
-0.0735859
-0.0735592
-0.0733855
-0.07332
-0.0736185
-0.0744927
-0.076053
-0.07827
-0.0810465
-0.0843092
-0.0879111
-0.0916503
-0.0952215
-0.0982594
-0.100199
-0.100485
-0.0984924
-0.0937043
-0.0858759
-0.0750537
-0.0617868
-0.0469949
-0.0318404
-0.0174518
-0.00475119
0.00589871
0.0147791
0.022436
0.0296369
0.0368908
0.0442847
0.0516477
0.0585641
0.0647454
0.0700919
0.0747788
0.079105
0.0833467
0.0874947
0.0912912
0.0943892
0.0965196
0.0975404
0.0976301
0.0971083
0.0963298
0.0956066
0.0950869
0.0946293
0.0941486
0.0936435
0.0932151
0.0928788
0.092739
0.0926491
0.0923387
0.0915064
0.0898688
0.0873285
0.0839951
0.0801991
0.0763895
0.0728958
0.0699249
0.0676117
0.0659093
0.0646439
0.0635876
0.062382
0.0606934
0.0582824
0.0551367
0.0514992
0.0477986
0.0446953
0.0426425
0.0417974
0.0419079
0.0424751
0.0427762
0.042292
0.0407736
0.0382447
0.0349803
0.0313415
0.027697
0.0242698
0.0211506
0.0184047
0.0160763
0.0141425
0.0127094
0.0118212
0.0113928
0.0114009
0.0116319
0.0118538
0.0118995
0.0115852
0.0108596
0.00967937
0.00816052
0.00638115
0.00454538
0.00277871
0.00127625
0.000167752
-0.000622569
-0.00121181
-0.00183845
-0.00272191
-0.00398057
-0.00556484
-0.00728835
-0.00892041
-0.0102235
-0.0110998
-0.0116272
-0.0118399
-0.0117165
-0.0112941
-0.0104968
-0.00926101
-0.00773723
-0.00606467
-0.0043983
-0.00285229
-0.00144789
-0.000178575
0.000783335
0.0012794
0.00101604
-0.000170193
-0.00197961
-0.00387486
-0.00501477
-0.00450229
-0.00190813
0.00279338
0.00912604
0.0164013
0.0239915
0.031581
0.0392217
0.0472134
0.0558723
0.0652375
0.0749076
0.0840464
0.0916929
0.0969432
0.0993426
0.09889
0.0960239
0.0914871
0.0860995
0.0806526
0.0758395
0.0723486
0.0705967
0.0707348
0.0722532
0.0739134
0.0741699
0.071359
0.0643868
0.0530386
0.038068
0.020967
0.00365272
-0.0120613
-0.0248758
-0.0340076
-0.0394064
-0.0415293
-0.0413437
-0.0400115
-0.0387742
-0.0385454
-0.0396825
-0.0420298
-0.0450133
-0.0479807
-0.0503035
-0.0517966
-0.0525002
-0.0526996
-0.052522
-0.0520285
-0.0512019
-0.0500599
-0.0488188
-0.048054
-0.0486181
-0.0515981
-0.0582377
-0.0696699
-0.0867884
-0.109864
-0.138257
-0.169897
-0.200749
-0.224793
-0.234332
-0.22039
-0.17368
-0.0861865
0.0463519
0.221659
0.428008
0.643269
0.836606
0.973934
1.02616
0.978265
0.835113
0.621846
0.377731
0.145403
-0.0407322
-0.162444
-0.219795
-0.227198
-0.20575
-0.175459
-0.14985
-0.13448
-0.128823
-0.129416
-0.132456
-0.135334
-0.137001
-0.137379
-0.136795
-0.135681
-0.134278
-0.132754
-0.131332
-0.130158
-0.129227
-0.128614
-0.128138
-0.12763
-0.126905
-0.125712
-0.12396
-0.121703
-0.11912
-0.11644
-0.113835
-0.111333
-0.108871
-0.106348
-0.103762
-0.101264
-0.0991438
-0.0976856
-0.0969382
-0.096749
-0.0966754
-0.0962242
-0.0951386
-0.09339
-0.0913509
-0.0894434
-0.0881266
-0.0874677
-0.0874217
-0.0875929
-0.0875545
-0.0870742
-0.0860599
-0.0846462
-0.0830334
-0.0814068
-0.0798645
-0.0784812
-0.0771948
-0.0760415
-0.0750704
-0.0744308
-0.0742307
-0.0744253
-0.0748704
-0.0753012
-0.0754003
-0.0749818
-0.0739874
-0.072722
-0.0715167
-0.0708391
-0.071071
-0.0724458
-0.0750192
-0.0785974
-0.0828584
-0.0873046
-0.0914338
-0.0947956
-0.0969968
-0.0977964
-0.0970316
-0.0947066
-0.0910079
-0.0860898
-0.0801805
-0.0733992
-0.0657151
-0.057072
-0.0474862
-0.0371568
-0.0265699
-0.0163942
-0.00732402
0.000154198
0.00596329
0.0103604
0.0138952
0.0170769
0.0203635
0.0240222
0.028217
0.0330833
0.0387388
0.0452313
0.0524735
0.0601859
0.0679188
0.0751526
0.081577
0.0869168
0.0911669
0.0944018
0.0966427
0.0979122
0.0982113
0.097609
0.0963654
0.094749
0.0930195
0.0913196
0.0895973
0.08759
0.0851433
0.0821754
0.0788659
0.0755812
0.072751
0.0706794
0.0694447
0.0689461
0.0688136
0.0687455
0.0684289
0.0677755
0.0668359
0.065782
0.0647634
0.0638149
0.0628496
0.0616137
0.0599124
0.057642
0.0547615
0.0514596
0.0480007
0.0445965
0.0414146
0.0385729
0.0360177
0.0337731
0.0318125
0.03009
0.0285564
0.0271028
0.0254411
0.0233417
0.0206279
0.0172784
0.0136119
0.0101157
0.00726844
0.00540154
0.00454682
0.00441834
0.004626
0.0047317
0.00444483
0.00369387
0.00267121
0.00156968
0.000587498
-0.000162617
-0.000754605
-0.00127436
-0.00189989
-0.00278623
-0.00398608
-0.00546101
-0.00700108
-0.00849819
-0.00969795
-0.0105797
-0.0111006
-0.0112619
-0.0110385
-0.0103512
-0.00919402
-0.00759364
-0.00568822
-0.00370735
-0.00204383
-0.000992021
-0.000703651
-0.00110954
-0.00196998
-0.00287431
-0.00355623
-0.00380413
-0.00360798
-0.00310431
-0.00248826
-0.00199281
-0.00177796
-0.00192038
-0.00243755
-0.00310369
-0.00365875
-0.00357402
-0.00226943
0.000781213
0.00583186
0.0125838
0.0203906
0.0283563
0.0355038
0.0413178
0.0458577
0.0496193
0.0535406
0.0584511
0.0647469
0.0722549
0.0803478
0.0879547
0.0941954
0.0983246
0.0999441
0.0989241
0.0954059
0.0897646
0.0826717
0.0750707
0.0681582
0.0631497
0.060948
0.0618422
0.0650756
0.0691006
0.0717864
0.0711638
0.0659871
0.056054
0.0422896
0.0265422
0.0107478
-0.00343709
-0.0150233
-0.0238395
-0.0302636
-0.0347965
-0.0380587
-0.040427
-0.0421878
-0.0434821
-0.044365
-0.0448318
-0.0449905
-0.0449164
-0.0446971
-0.0444204
-0.0440969
-0.043672
-0.0430316
-0.0420335
-0.0405812
-0.038889
-0.037253
-0.0359765
-0.0352714
-0.0351822
-0.0356517
-0.0365823
-0.038126
-0.0409384
-0.0462689
-0.0556909
-0.0708537
-0.0929135
-0.122083
-0.15691
-0.193828
-0.226939
-0.24821
-0.248157
-0.216713
-0.145021
-0.0279457
0.133217
0.328358
0.537485
0.732273
0.880793
0.954708
0.936876
0.827302
0.644382
0.420958
0.19568
0.00286434
-0.135428
-0.21318
-0.238687
-0.228924
-0.20279
-0.175215
-0.154544
-0.142894
-0.138373
-0.137745
-0.138219
-0.138369
-0.137921
-0.137119
-0.136272
-0.13544
-0.134453
-0.133192
-0.131476
-0.129379
-0.127003
-0.124525
-0.122078
-0.119707
-0.117309
-0.114728
-0.111933
-0.108885
-0.105692
-0.102598
-0.0999035
-0.0978545
-0.0966226
-0.0962125
-0.0965104
-0.0972486
-0.0981008
-0.0986772
-0.0987066
-0.0978908
-0.0960453
-0.0931876
-0.0896095
-0.0856558
-0.081921
-0.078968
-0.0771464
-0.0765077
-0.0768133
-0.0775656
-0.0782078
-0.0782877
-0.0775998
-0.0763114
-0.0748503
-0.0737967
-0.0736155
-0.0745527
-0.0765235
-0.0790833
-0.0816117
-0.0834298
-0.0840244
-0.0831013
-0.0806283
-0.0769397
-0.0725782
-0.0680847
-0.0640106
-0.0607049
-0.0582787
-0.0565644
-0.0552248
-0.0540721
-0.0529238
-0.0518653
-0.0512533
-0.0514962
-0.0529417
-0.0558074
-0.0600532
-0.0653913
-0.0713137
-0.0771061
-0.0817898
-0.0844098
-0.0840549
-0.0802089
-0.0729279
-0.0630159
-0.0519634
-0.0414975
-0.0330584
-0.0274693
-0.0246224
-0.0237407
-0.0236869
-0.023489
-0.0226633
-0.02109
-0.0190105
-0.0166846
-0.0141506
-0.0112082
-0.00761666
-0.00299215
0.0026956
0.00946933
0.0171233
0.0253405
0.033666
0.0417665
0.049221
0.0557332
0.0611951
0.0656676
0.0693805
0.0726573
0.0757867
0.0789387
0.0820852
0.0851202
0.0877904
0.0898952
0.0912975
0.0919973
0.0920455
0.0915656
0.0906636
0.0893872
0.0876841
0.0853982
0.0825738
0.0791975
0.0754209
0.0715341
0.0678964
0.0646842
0.0619908
0.059777
0.0578781
0.0561426
0.0544612
0.0528044
0.051107
0.0493006
0.0473858
0.0453756
0.0434616
0.0419408
0.0412026
0.0414484
0.0426043
0.044206
0.045536
0.0457369
0.0443375
0.0412756
0.0370012
0.032269
0.0280101
0.0248209
0.0229501
0.0222521
0.0223203
0.0225692
0.0225168
0.0216871
0.0197757
0.0166169
0.0123132
0.00736703
0.00252641
-0.0013198
-0.0034806
-0.00354261
-0.00171659
0.0013743
0.00489285
0.00791661
0.00982579
0.0103424
0.00947465
0.0075076
0.00484201
0.00188413
-0.000983646
-0.00346968
-0.00549008
-0.00702764
-0.00817324
-0.00900738
-0.00966875
-0.0102169
-0.0107721
-0.0114421
-0.0123237
-0.0134951
-0.0148707
-0.016167
-0.016893
-0.016616
-0.015041
-0.0122352
-0.00871374
-0.00519446
-0.00255599
-0.00141596
-0.00209413
-0.00444987
-0.00790797
-0.0115106
-0.0142793
-0.0151693
-0.0133593
-0.0085199
-0.000933125
0.00852157
0.01862
0.0280354
0.0357057
0.0410856
0.044173
0.0454056
0.0454335
0.0449975
0.0447633
0.0452847
0.0470246
0.0502503
0.05497
0.0608391
0.0671965
0.0730565
0.077534
0.0800491
0.0805163
0.0794215
0.0776399
0.0760115
0.0750142
0.0745428
0.074089
0.0730827
0.0712294
0.0687959
0.0665161
0.0650688
0.0646915
0.0648025
0.0641286
0.0609427
0.0538605
0.0423611
0.0269873
0.00939597
-0.00814434
-0.0232744
-0.0343631
-0.0406505
-0.0425353
-0.0413251
-0.0387822
-0.0366218
-0.0359848
-0.0373126
-0.0403009
-0.0442118
-0.0482854
-0.0520536
-0.0553264
-0.0581241
-0.0605478
-0.0624872
-0.0636951
-0.0638304
-0.0627176
-0.0604435
-0.0576116
-0.0552619
-0.0546546
-0.0569912
-0.0631942
-0.0738011
-0.0888675
-0.108172
-0.131173
-0.156677
-0.182655
-0.205727
-0.22118
-0.223192
-0.205384
-0.161357
-0.0853232
0.0267605
0.175266
0.354901
0.552736
0.747414
0.911118
1.0146
1.03474
0.961929
0.804398
0.58756
0.347972
0.123602
-0.0556009
-0.174237
-0.232831
-0.244197
-0.226879
-0.198767
-0.17236
-0.153655
-0.143373
-0.139412
-0.138973
-0.139832
-0.140854
-0.141557
-0.141578
-0.140588
-0.138399
-0.1351
-0.13119
-0.12734
-0.124294
-0.12263
-0.122405
-0.123249
-0.124485
-0.125343
-0.125238
-0.123929
-0.121456
-0.118189
-0.114619
-0.111125
-0.107977
-0.105219
-0.102766
-0.100491
-0.0981885
-0.0957562
-0.0931494
-0.0903951
-0.0876692
-0.0852047
-0.0832152
-0.0817778
-0.0807908
-0.0800226
-0.0791515
-0.0779218
-0.0763251
-0.0745466
-0.072981
-0.0720755
-0.072039
-0.0728635
-0.0742916
-0.0758202
-0.0771426
-0.0780969
-0.0788378
-0.0796233
-0.0807035
-0.0819962
-0.083252
-0.0840475
-0.0840108
-0.0830698
-0.0814254
-0.0794276
-0.0774341
-0.0757071
-0.0742595
-0.0730438
-0.0721139
-0.0716213
-0.0718006
-0.0730494
-0.0756889
-0.0797142
-0.0850178
-0.0911287
-0.097392
-0.103173
-0.107841
-0.111039
-0.112531
-0.112218
-0.110003
-0.105762
-0.0993858
-0.0908766
-0.0805645
-0.06899
-0.0569934
-0.045508
-0.0353222
-0.0269058
-0.020331
-0.0153199
-0.0112534
-0.00737249
-0.00297063
0.002641
0.00991467
0.0191389
0.030314
0.0431487
0.0570671
0.0712865
0.0848123
0.0966837
0.106142
0.112767
0.116618
0.11819
0.118237
0.117514
0.116753
0.11624
0.116048
0.115984
0.115848
0.11554
0.115082
0.114683
0.114572
0.114828
0.115451
0.116225
0.11693
0.117318
0.117215
0.11658
0.115477
0.113934
0.112064
0.1099
0.107529
0.105098
0.102794
0.100778
0.0990775
0.0976263
0.0961665
0.094347
0.0918777
0.0886302
0.0847478
0.0805415
0.0764658
0.0730401
0.0706447
0.0695753
0.0697968
0.0710933
0.0729995
0.0748344
0.0760078
0.0760466
0.0747705
0.0723232
0.0690371
0.0654383
0.0619202
0.0587701
0.0560845
0.053728
0.0515739
0.049451
0.0472175
0.0447895
0.0421787
0.0394862
0.0368263
0.0342825
0.0320565
0.0301951
0.0288087
0.0278663
0.0273492
0.0270697
0.0269154
0.0267488
0.0265102
0.026154
0.0255515
0.024626
0.0232658
0.0214299
0.0192507
0.0169255
0.0148179
0.013166
0.0121026
0.0114649
0.0109671
0.0102397
0.00904914
0.00736486
0.00544991
0.00376755
0.00271412
0.00260538
0.00345182
0.00504316
0.00708931
0.00942054
0.011981
0.0150815
0.0190467
0.0241359
0.0304734
0.0377814
0.0456208
0.0533758
0.0605411
0.0668853
0.0723433
0.077241
0.0818418
0.0865387
0.0913409
0.0962001
0.1008
0.104891
0.10817
0.110399
0.111433
0.11109
0.109279
0.106043
0.101463
0.0958986
0.0898316
0.0838001
0.078326
0.0739614
0.0711992
0.0705237
0.0721955
0.0760217
0.0811075
0.0859506
0.0885617
0.0870628
0.0803085
0.0680862
0.0514224
0.0321426
0.0126008
-0.00519378
-0.0197262
-0.0303087
-0.0370964
-0.0407473
-0.0423451
-0.0430999
-0.0438479
-0.0451233
-0.0468546
-0.0486248
-0.0498148
-0.0500194
-0.049174
-0.0474856
-0.0455639
-0.0438587
-0.0425539
-0.0416763
-0.0411355
-0.0409527
-0.0415425
-0.0438403
-0.0491214
-0.0588056
-0.0741444
-0.095722
-0.123171
-0.15467
-0.186974
-0.215761
-0.235826
-0.241945
-0.229504
-0.194297
-0.13222
-0.0392995
0.0876983
0.249206
0.439711
0.645117
0.842073
1.00026
1.0889
1.08532
0.983082
0.795698
0.554454
0.300637
0.0742498
-0.0960016
-0.19866
-0.239283
-0.23535
-0.20864
-0.177814
-0.154433
-0.142538
-0.140604
-0.144559
-0.15036
-0.155273
-0.158075
-0.158567
-0.157189
-0.154369
-0.150616
-0.14645
-0.142286
-0.138474
-0.135159
-0.132436
-0.130283
-0.12859
-0.127346
-0.126436
-0.125782
-0.125219
-0.124692
-0.124194
-0.123602
-0.122971
-0.122154
-0.120975
-0.119264
-0.116874
-0.113875
-0.110521
-0.107139
-0.104196
-0.101978
-0.100513
-0.0996857
-0.0991834
-0.0986636
-0.0977602
-0.0963201
-0.0942579
-0.091704
-0.0889216
-0.0862795
-0.084203
-0.0829464
-0.0826379
-0.0832489
-0.0844548
-0.0859321
-0.087353
-0.0884756
-0.0892143
-0.0895352
-0.0895617
-0.0892763
-0.0888018
-0.0882236
-0.0876612
-0.0871588
-0.0868242
-0.0866069
-0.0864142
-0.0861302
-0.0857729
-0.085448
-0.0854048
-0.0859111
-0.0872132
-0.0893474
-0.0920555
-0.0950219
-0.0978311
-0.100052
-0.101551
-0.102205
-0.101982
-0.100821
-0.0984048
-0.094368
-0.088163
-0.0796564
-0.0689685
-0.0567066
-0.0437774
-0.0312317
-0.0197903
-0.00976402
-0.000941645
0.00719345
0.0152669
0.0237915
0.0329624
0.0425811
0.0523449
0.061823
0.0705334
0.0782474
0.0847804
0.0900152
0.0940795
0.097034
0.0990473
0.100327
0.100993
0.101177
0.100835
0.100061
0.0988871
0.0975066
0.0961184
0.0948456
0.0936146
0.0922299
0.0903956
0.0879229
0.0848252
0.0813051
0.0777721
0.0747368
0.0724177
0.0709799
0.0703972
0.0703837
0.0706128
0.0708116
0.0706405
0.0699015
0.0684641
0.0663291
0.0635799
0.0603205
0.0567447
0.0530256
0.0494141
0.0460451
0.0430636
0.0404457
0.0381793
0.0361438
0.034126
0.0320916
0.0299292
0.0276997
0.025452
0.023149
0.0207895
0.018341
0.0157365
0.0129588
0.0101554
0.00757133
0.00552869
0.00431895
0.00405366
0.00453798
0.00528143
0.00579589
0.00557147
0.00439861
0.00245198
0.000131215
-0.00217135
-0.00407812
-0.00560503
-0.00697703
-0.00840487
-0.0102384
-0.0123823
-0.0146325
-0.0167612
-0.018466
-0.0195594
-0.0201213
-0.0202812
-0.020154
-0.0198809
-0.0195609
-0.0191879
-0.0187644
-0.0182722
-0.0176392
-0.0168184
-0.015895
-0.0149696
-0.0142755
-0.0139892
-0.0141405
-0.0144978
-0.0145331
-0.0135891
-0.010975
-0.00635702
0.000319713
0.00862564
0.0178561
0.0273716
0.0365654
0.045167
0.053132
0.060498
0.0673302
0.0734968
0.0787013
0.0825361
0.0846653
0.085001
0.0836487
0.0810604
0.0777849
0.0743767
0.0713397
0.0688072
0.066673
0.0646551
0.0623366
0.0595039
0.0561637
0.0527942
0.0501285
0.048928
0.0496595
0.0520656
0.0552313
0.0575912
0.0575031
0.0537566
0.0458622
0.0342828
0.0202352
0.00525298
-0.0091631
-0.0219445
-0.032475
-0.0406164
-0.0464992
-0.0504557
-0.0529795
-0.0545439
-0.0555831
-0.0564692
-0.0573108
-0.0580709
-0.0585709
-0.0586775
-0.0583882
-0.0578546
-0.0572502
-0.0567394
-0.0564436
-0.0564075
-0.05668
-0.0576279
-0.0599294
-0.0647514
-0.0734294
-0.0870838
-0.106254
-0.130181
-0.156587
-0.181442
-0.199246
-0.203585
-0.187754
-0.145374
-0.0712946
0.0371762
0.178327
0.344437
0.520448
0.684615
0.811587
0.87784
0.867893
0.779738
0.626589
0.43426
0.234601
0.0572789
-0.0772902
-0.161528
-0.200019
-0.205422
-0.192864
-0.175339
-0.160947
-0.152871
-0.150696
-0.152371
-0.155561
-0.158584
-0.16048
-0.160932
-0.15991
-0.157654
-0.154493
-0.150826
-0.146929
-0.143053
-0.139276
-0.135775
-0.132675
-0.130093
-0.128085
-0.126525
-0.125278
-0.124039
-0.122584
-0.120787
-0.118728
-0.11659
-0.11467
-0.113212
-0.112315
-0.111968
-0.111991
-0.112079
-0.111946
-0.111297
-0.109964
-0.107995
-0.105545
-0.102828
-0.100141
-0.0976024
-0.0952812
-0.0931293
-0.0911326
-0.0893262
-0.0878928
-0.0870438
-0.0868612
-0.0873681
-0.0883633
-0.0895775
-0.0906557
-0.0914365
-0.0917691
-0.0916297
-0.0910999
-0.0902224
-0.0890438
-0.0875768
-0.0858318
-0.0839102
-0.0819837
-0.0802297
-0.0788924
-0.0781755
-0.0781186
-0.0786661
-0.0795799
-0.0805969
-0.0815156
-0.0822254
-0.0827209
-0.0832409
-0.0840914
-0.0855047
-0.0876539
-0.0904336
-0.0934355
-0.0958839
-0.096955
-0.0958813
-0.0920795
-0.0854005
-0.0759848
-0.0644381
-0.0514772
-0.0379285
-0.0245938
-0.0120707
-0.000796339
0.00904923
0.0175535
0.0250241
0.03172
0.0380131
0.0441383
0.0500999
0.0557246
0.0607644
0.0648907
0.0678524
0.0696296
0.070437
0.0706169
0.0706124
0.0708148
0.0714018
0.0723416
0.0734912
0.0744654
0.0749901
0.0747658
0.0736791
0.071791
0.0692729
0.06635
0.0632605
0.0601746
0.0571082
0.0542096
0.0515275
0.0491351
0.0472122
0.0457656
0.0446581
0.0436945
0.0425287
0.0409187
0.0387295
0.0360554
0.0331567
0.0302865
0.0277674
0.025664
0.0240257
0.0228199
0.021946
0.0213522
0.020931
0.0205724
0.0200262
0.0191422
0.0177329
0.015755
0.0133849
0.0108609
0.00841702
0.00619624
0.00409133
0.00189133
-0.00059487
-0.00346573
-0.00652321
-0.0095175
-0.0120899
-0.0139329
-0.0149873
-0.0153654
-0.0152447
-0.0148312
-0.0143264
-0.0139076
-0.0136737
-0.0138369
-0.0145645
-0.0159316
-0.0178521
-0.0200891
-0.0222192
-0.0238236
-0.0246261
-0.0245772
-0.0238786
-0.0228658
-0.0218806
-0.0211488
-0.0206988
-0.0204177
-0.0202228
-0.019946
-0.0196838
-0.0196305
-0.0200223
-0.0210256
-0.0227595
-0.0251076
-0.0277567
-0.0303055
-0.0324092
-0.0335815
-0.033442
-0.0316846
-0.028052
-0.0225697
-0.0155188
-0.00734442
0.00126109
0.00964719
0.0173833
0.0242961
0.030574
0.036548
0.0425658
0.0488586
0.055318
0.0615126
0.0668333
0.0706299
0.0723508
0.0717328
0.0689275
0.0644242
0.0589053
0.0531759
0.0480162
0.0439127
0.0410024
0.0389453
0.0370068
0.0343503
0.0301839
0.0240475
0.0160017
0.0065339
-0.00360313
-0.0135761
-0.0227712
-0.030792
-0.0374272
-0.0427315
-0.0467343
-0.0497304
-0.0520828
-0.0542601
-0.0566868
-0.0595794
-0.0629703
-0.0665194
-0.0697175
-0.0720554
-0.0732353
-0.0732852
-0.0726298
-0.0719423
-0.0718209
-0.0727046
-0.0744421
-0.0765406
-0.078303
-0.0790113
-0.0784371
-0.0770994
-0.0763382
-0.0779414
-0.0838095
-0.0952406
-0.112514
-0.134399
-0.157892
-0.178301
-0.189409
-0.183914
-0.154084
-0.0931839
0.0025462
0.131596
0.285126
0.446162
0.591429
0.695853
0.738471
0.708846
0.610587
0.461155
0.287686
0.119375
-0.0199182
-0.116822
-0.169912
-0.187293
-0.181789
-0.166184
-0.149885
-0.137683
-0.130654
-0.127752
-0.12727
-0.127807
-0.128531
-0.128919
-0.128764
-0.127987
-0.126708
-0.125219
-0.123857
-0.122959
-0.122539
-0.122468
-0.122365
-0.121834
-0.120695
-0.119068
-0.117269
-0.115893
-0.115372
-0.115876
-0.117248
-0.118872
-0.119962
-0.119785
-0.117884
-0.114274
-0.10938
-0.103923
-0.098583
-0.0940018
-0.0904066
-0.0878867
-0.0862591
-0.0853219
-0.0848741
-0.0847666
-0.0848893
-0.0850376
-0.0851131
-0.0849451
-0.0844884
-0.0837236
-0.0828055
-0.0818648
-0.081105
-0.0805799
-0.0801599
-0.0796751
-0.0787675
-0.0771541
-0.0747214
-0.0715927
-0.0682277
-0.0652269
-0.0632041
-0.0625094
-0.0632212
-0.0649822
-0.0672355
-0.069355
-0.0708202
-0.0714461
-0.071374
-0.0711193
-0.0713245
-0.0726575
-0.0754412
-0.0796245
-0.0847086
-0.0899101
-0.0944056
-0.0976562
-0.0994752
-0.0999932
-0.0995887
-0.0985121
-0.0968008
-0.094198
-0.0903312
-0.0848009
-0.0774541
-0.0685647
-0.0586683
-0.0484935
-0.038704
-0.0297297
-0.0216742
-0.0142271
-0.0069519
0.000583367
0.00870651
0.017566
0.0269606
0.0365848
0.0459734
0.0545563
0.0618365
0.067554
0.0715592
0.0740366
0.0754006
0.0760813
0.0765521
0.0769851
0.077382
0.077543
0.0771826
0.0761244
0.0743657
0.0720828
0.0695789
0.0672437
0.0653309
0.0639016
0.0628742
0.0621899
0.0617453
0.0614365
0.0612962
0.0611795
0.0608788
0.0600765
0.0584148
0.0555771
0.0515973
0.0466833
0.0413739
0.0363388
0.0320569
0.0288602
0.0267512
0.0254718
0.0247245
0.0242261
0.0238059
0.0235245
0.0234207
0.0235028
0.0236481
0.0236769
0.0234462
0.0228191
0.0217438
0.0202767
0.0184441
0.0162242
0.0135913
0.0105148
0.00706164
0.00339925
-0.000166684
-0.00318845
-0.00522475
-0.00593313
-0.00524334
-0.00336037
-0.000793829
0.00166424
0.00323052
0.00331386
0.00165922
-0.00156632
-0.00568275
-0.00987374
-0.013252
-0.0152207
-0.0155119
-0.0143262
-0.0120773
-0.00934681
-0.0066587
-0.00447432
-0.00301616
-0.00251637
-0.00298182
-0.00429801
-0.00620328
-0.00831867
-0.0101519
-0.0113298
-0.0114415
-0.010362
-0.00808482
-0.00465427
-0.000276365
0.00477773
0.0103366
0.0162896
0.0225945
0.0293665
0.036804
0.0449775
0.0536936
0.0626009
0.0709882
0.0781021
0.0832638
0.0861769
0.0867567
0.0854535
0.0827642
0.0792341
0.0752732
0.0711382
0.0669859
0.0630387
0.0596011
0.0571844
0.0561885
0.0567752
0.0586189
0.0608897
0.0623594
0.0617374
0.0580558
0.0509053
0.0405706
0.0280082
0.0145566
0.00148455
-0.010088
-0.0195082
-0.0266247
-0.0316147
-0.0348886
-0.0370482
-0.0386066
-0.0400339
-0.0416691
-0.0436919
-0.0461432
-0.0489789
-0.0520544
-0.0552562
-0.0584442
-0.0615374
-0.0644082
-0.0668875
-0.0687709
-0.069856
-0.0701008
-0.0696402
-0.0690763
-0.0693439
-0.0718643
-0.0780834
-0.0892547
-0.105905
-0.127289
-0.150932
-0.172283
-0.1847
-0.179978
-0.149247
-0.0846357
0.0184113
0.158448
0.32608
0.503231
0.664981
0.784115
0.8375
0.81264
0.711882
0.552608
0.363094
0.175016
0.0153667
-0.099539
-0.166209
-0.191833
-0.18972
-0.173957
-0.155567
-0.140822
-0.131699
-0.127573
-0.126756
-0.127715
-0.12933
-0.131008
-0.132497
-0.133597
-0.134268
-0.134595
-0.134609
-0.134222
-0.133185
-0.131317
-0.12841
-0.124513
-0.119999
-0.115479
-0.111564
-0.108647
-0.106747
-0.105542
-0.104552
-0.103367
-0.101734
-0.0997357
-0.0976458
-0.0957396
-0.0942713
-0.0931277
-0.092163
-0.0910962
-0.0896285
-0.0877429
-0.0855697
-0.0833319
-0.0813381
-0.0798882
-0.0791342
-0.0789809
-0.0793317
-0.0799972
-0.0808643
-0.0817658
-0.0826524
-0.0833293
-0.0836727
-0.083524
-0.0827898
-0.0815266
-0.0799294
-0.0781184
-0.0763398
-0.0745904
-0.0728527
-0.0710829
-0.0692295
-0.0673514
-0.0657049
-0.0645627
-0.0642542
-0.0649674
-0.0667562
-0.0693844
-0.0724305
-0.0754403
-0.0779695
-0.0798178
-0.0809826
-0.08182
-0.0827793
-0.0843272
-0.0867271
-0.0899632
-0.0937091
-0.0974495
-0.100638
-0.102795
-0.10341
-0.102226
-0.0988575
-0.0930465
-0.0845692
-0.0735205
-0.0603961
-0.0461299
-0.0319174
-0.0190549
-0.008443
-0.000450793
0.00512139
0.00898974
0.0121059
0.0154133
0.0195274
0.024802
0.0312211
0.0385363
0.0463975
0.05444
0.0622987
0.0696995
0.0764949
0.0826018
0.088062
0.092808
0.0967675
0.0999149
0.102135
0.103529
0.104456
0.105304
0.106458
0.108179
0.110397
0.112672
0.114483
0.115336
0.114914
0.113219
0.11054
0.107167
0.103525
0.0998831
0.0964474
0.093341
0.0906018
0.0881948
0.0861103
0.0842312
0.0823328
0.080331
0.0781624
0.0758658
0.0737276
0.072045
0.0709886
0.0705752
0.0706023
0.0706739
0.0703758
0.0694753
0.067898
0.0657995
0.063462
0.0610323
0.0585911
0.0560694
0.0532784
0.0501204
0.0465778
0.0427289
0.0388868
0.0354513
0.0328087
0.0313286
0.0311521
0.0321688
0.0339864
0.036088
0.0378268
0.0386307
0.0380808
0.0360608
0.0327768
0.0286857
0.0244125
0.0206599
0.0179351
0.0166031
0.0166211
0.0177462
0.0193837
0.0209376
0.021875
0.0217981
0.0205937
0.0184772
0.0157711
0.0129597
0.0105429
0.00879284
0.00779906
0.00741677
0.007316
0.00709949
0.00642837
0.00505911
0.00302138
0.000534824
-0.00204812
-0.00423285
-0.00552284
-0.0055658
-0.00408193
-0.000991305
0.00366067
0.00968482
0.0168799
0.0249225
0.0334553
0.042024
0.0502025
0.0576264
0.0641301
0.069842
0.0751026
0.0803703
0.0859389
0.0917884
0.0975552
0.102654
0.106537
0.108858
0.109525
0.108642
0.106477
0.103216
0.0990013
0.0940184
0.0884805
0.0827623
0.0774009
0.072954
0.0700336
0.0691228
0.0703985
0.0735909
0.0777779
0.0814069
0.0826973
0.0800157
0.0724278
0.0599999
0.0438669
0.0259264
0.00833024
-0.00714093
-0.0194591
-0.0283697
-0.0342606
-0.0378313
-0.0398042
-0.0407021
-0.0409539
-0.0408371
-0.0405148
-0.0401462
-0.0399259
-0.0399238
-0.0402166
-0.0407646
-0.0415952
-0.0425869
-0.043599
-0.0444913
-0.0451991
-0.0457779
-0.0467081
-0.0487825
-0.053227
-0.0615381
-0.0751011
-0.0948176
-0.120713
-0.151377
-0.183374
-0.211129
-0.227093
-0.222616
-0.189063
-0.11956
-0.0103986
0.137409
0.317776
0.520062
0.730551
0.934184
1.11619
1.26264
1.36088
1.39984
1.37115
1.27109
1.10316
0.88
0.623459
0.361584
0.123133
-0.0687495
-0.201416
-0.274724
-0.299107
-0.291132
-0.268206
-0.243995
-0.22637
-0.217439
-0.215698
-0.218042
-0.221579
-0.224467
-0.225915
-0.225931
-0.224718
-0.222615
-0.219912
-0.21679
-0.213422
-0.209953
-0.206466
-0.203054
-0.199846
-0.196993
-0.194616
-0.192824
-0.191647
-0.19095
-0.190654
-0.19062
-0.190719
-0.19084
-0.190788
-0.190512
-0.189802
-0.188675
-0.187114
-0.185199
-0.183057
-0.180655
-0.178051
-0.17518
-0.171961
-0.168402
-0.164609
-0.160766
-0.157193
-0.154158
-0.151891
-0.150517
-0.150074
-0.150391
-0.151273
-0.152444
-0.153607
-0.154522
-0.154989
-0.154906
-0.154256
-0.153137
-0.151853
-0.150681
-0.15004
-0.150149
-0.15104
-0.152436
-0.153855
-0.154781
-0.15493
-0.154302
-0.153247
-0.152347
-0.152032
-0.152567
-0.153861
-0.155615
-0.157438
-0.15898
-0.159939
-0.159942
-0.158592
-0.155503
-0.150181
-0.142376
-0.132054
-0.119363
-0.104807
-0.0890718
-0.0730064
-0.0575268
-0.0435281
-0.0317201
-0.0224504
-0.0157004
-0.0109497
-0.00748761
-0.004513
-0.00133545
0.00239632
0.00692123
0.0121786
0.0180698
0.0245291
0.0313996
0.0385947
0.0459595
0.0533478
0.0606306
0.0675832
0.074093
0.079887
0.0846717
0.0883089
0.0906117
0.0916459
0.0916001
0.0907836
0.0895106
0.0880066
0.0864004
0.0847526
0.0830735
0.0814518
0.0799312
0.0786229
0.0774307
0.0763441
0.0752199
0.0739884
0.0726442
0.0712087
0.0697868
0.0684602
0.067248
0.066164
0.0651065
0.0640227
0.0629056
0.0617104
0.0605208
0.0593212
0.0580816
0.0566998
0.0549917
0.0527589
0.0499371
0.0464369
0.0424179
0.0381482
0.0339363
0.0300388
0.0266716
0.0238179
0.0214384
0.0193364
0.0173255
0.0153225
0.0132508
0.0110107
0.00864163
0.00610594
0.0034702
0.00099783
-0.00108375
-0.002515
-0.00318331
-0.00306258
-0.00242684
-0.00156508
-0.000766366
-0.000265376
-0.00028966
-0.000941465
-0.00226062
-0.00424118
-0.00671311
-0.00930043
-0.0115729
-0.0130941
-0.0136978
-0.0134133
-0.0125211
-0.0114867
-0.0108092
-0.010724
-0.0113899
-0.0126535
-0.0143021
-0.016077
-0.0177083
-0.0189816
-0.0197352
-0.0198654
-0.0192513
-0.0179047
-0.0158985
-0.0135287
-0.0110088
-0.00865537
-0.00668372
-0.00520151
-0.00411438
-0.00328721
-0.0024516
-0.00123167
0.000798254
0.00402563
0.00866499
0.0146393
0.0216747
0.0291313
0.0364308
0.0431092
0.049091
0.0545886
0.0599357
0.0654353
0.0712201
0.0770694
0.0825401
0.0870564
0.0901794
0.0916954
0.0917059
0.0904779
0.0885209
0.0862832
0.083985
0.0817541
0.0795559
0.0773477
0.0753082
0.0737641
0.0730459
0.0732611
0.0738244
0.0736393
0.0712515
0.0653724
0.0553527
0.041473
0.025019
0.00777548
-0.00840472
-0.0221443
-0.0327406
-0.0401645
-0.0449291
-0.0476254
-0.048971
-0.0494268
-0.0494266
-0.0491456
-0.0487176
-0.0483353
-0.0480939
-0.0481559
-0.0486023
-0.0493413
-0.0501678
-0.0507486
-0.0507073
-0.0498743
-0.048367
-0.0466011
-0.0454539
-0.0461912
-0.0504345
-0.0598948
-0.0759897
-0.0993377
-0.129053
-0.162283
-0.194129
-0.218277
-0.227976
-0.217158
-0.181575
-0.119234
-0.0302849
0.0832722
0.218108
0.370121
0.534185
0.703505
0.868648
1.01624
1.1291
1.18825
1.17707
1.08663
0.920632
0.697183
0.44625
0.202953
-0.00135909
-0.146665
-0.228325
-0.255737
-0.246997
-0.221741
-0.195458
-0.17674
-0.167576
-0.165906
-0.16831
-0.171845
-0.174743
-0.176383
-0.176604
-0.175402
-0.172905
-0.16928
-0.164914
-0.160391
-0.156354
-0.153344
-0.151759
-0.151739
-0.153131
-0.155526
-0.158253
-0.160602
-0.162034
-0.162248
-0.161254
-0.159343
-0.156883
-0.154201
-0.151449
-0.148617
-0.145549
-0.142149
-0.138483
-0.134865
-0.131754
-0.129627
-0.128698
-0.129026
-0.130298
-0.132093
-0.133858
-0.13514
-0.135557
-0.135067
-0.133798
-0.132075
-0.130285
-0.128794
-0.127749
-0.127066
-0.126483
-0.125637
-0.124241
-0.122152
-0.119511
-0.116552
-0.113659
-0.11116
-0.109326
-0.108262
-0.10798
-0.108291
-0.10909
-0.110236
-0.111794
-0.113838
-0.116438
-0.119512
-0.122879
-0.12607
-0.128641
-0.130204
-0.130625
-0.130171
-0.129154
-0.127906
-0.126469
-0.124461
-0.121208
-0.115963
-0.10828
-0.098196
-0.0863421
-0.0737548
-0.0615452
-0.0506068
-0.0413124
-0.0335898
-0.0269762
-0.021004
-0.0152767
-0.00954863
-0.00377276
0.00200151
0.00775353
0.0135003
0.0192362
0.0249709
0.0305465
0.0358885
0.0408476
0.0453672
0.0494643
0.0533407
0.0570816
0.0608456
0.0647411
0.0688145
0.0730132
0.0771995
0.0809652
0.0839035
0.0855664
0.0856628
0.0841646
0.0813892
0.0778806
0.0742977
0.0711708
0.0688162
0.067264
0.0662786
0.0655989
0.0648946
0.0639874
0.0628486
0.0615679
0.0602845
0.0592335
0.0583826
0.0577972
0.0572891
0.0566771
0.0557002
0.0541472
0.0518003
0.0485964
0.0446107
0.0401257
0.0355276
0.0312609
0.027779
0.0253616
0.0240876
0.0238238
0.0242335
0.0249516
0.0255331
0.0255919
0.0249185
0.0234128
0.0211443
0.0182987
0.0151772
0.0120206
0.00899173
0.00616207
0.00349686
0.000953769
-0.00147236
-0.00373902
-0.0056879
-0.00719325
-0.00828459
-0.00927584
-0.0105614
-0.0126312
-0.0157733
-0.0197816
-0.0239644
-0.0272884
-0.028717
-0.0278027
-0.0245831
-0.0198636
-0.0148593
-0.0108071
-0.00854918
-0.00831653
-0.00977658
-0.0122587
-0.0149433
-0.0172008
-0.0186615
-0.0192735
-0.0192396
-0.0188848
-0.0186483
-0.0189549
-0.020132
-0.0222671
-0.0252218
-0.0285526
-0.0316611
-0.0339899
-0.0350559
-0.0347079
-0.032938
-0.0297919
-0.0254064
-0.0197876
-0.0130432
-0.00526723
0.00325379
0.0120097
0.02047
0.0282056
0.034967
0.0407859
0.0458738
0.0505174
0.0550465
0.0595887
0.0640813
0.0682977
0.0717962
0.0741997
0.0750406
0.0740916
0.0713142
0.0669261
0.0612955
0.0550799
0.0489182
0.0434933
0.0395531
0.037703
0.0382947
0.0411157
0.0452877
0.0494262
0.0517603
0.0507015
0.0453708
0.0359291
0.0234547
0.00967995
-0.00372342
-0.0154382
-0.0249312
-0.032312
-0.0382238
-0.0433696
-0.0482456
-0.0530557
-0.0577223
-0.0619065
-0.0652452
-0.0674984
-0.068684
-0.0689081
-0.0684464
-0.0676324
-0.0667379
-0.065872
-0.0650431
-0.0642187
-0.0634221
-0.0627424
-0.0623834
-0.0628388
-0.0645608
-0.0681023
-0.0739962
-0.0826551
-0.094488
-0.109861
-0.128899
-0.151253
-0.175092
-0.196713
-0.210063
-0.206787
-0.177017
-0.11119
-0.00281181
0.148291
0.333054
0.532063
0.717106
0.856247
0.92152
0.896772
0.783392
0.600991
0.382704
0.166425
-0.0153621
-0.142979
-0.212249
-0.232389
-0.220102
-0.193156
-0.165245
-0.143934
-0.131413
-0.126426
-0.126368
-0.128835
-0.132081
-0.135141
-0.137397
-0.138551
-0.138533
-0.137499
-0.135718
-0.133397
-0.130667
-0.127578
-0.124212
-0.120802
-0.117647
-0.115151
-0.113485
-0.112528
-0.111969
-0.111363
-0.110405
-0.109002
-0.107238
-0.105347
-0.103475
-0.101691
-0.100027
-0.0984366
-0.0971662
-0.0964834
-0.0966583
-0.097664
-0.0991403
-0.100409
-0.100701
-0.0994078
-0.0963896
-0.0919874
-0.0869709
-0.0821256
-0.0781591
-0.0753374
-0.0736649
-0.0728886
-0.0727125
-0.0729087
-0.0733306
-0.0738959
-0.0745854
-0.0752341
-0.075697
-0.0757785
-0.0754209
-0.0747221
-0.0738859
-0.0731602
-0.0727177
-0.072648
-0.0728428
-0.0731302
-0.0733581
-0.0734235
-0.0732636
-0.0729629
-0.0725583
-0.0721896
-0.0720167
-0.0722821
-0.0732109
-0.0750155
-0.0777333
-0.0812347
-0.0851791
-0.0890531
-0.0922696
-0.0943213
-0.0947292
-0.0933105
-0.0900112
-0.085118
-0.07902
-0.0723117
-0.0654795
-0.0588043
-0.0523229
-0.0459214
-0.0391447
-0.0316004
-0.0231103
-0.0136576
-0.00353346
0.00684224
0.0171322
0.0271578
0.0369582
0.0466728
0.056381
0.0659353
0.0749647
0.0829208
0.0892348
0.0936799
0.096338
0.097632
0.0982333
0.0986988
0.0993463
0.100242
0.101263
0.102243
0.103086
0.10394
0.104938
0.106134
0.107438
0.108577
0.109292
0.109486
0.109254
0.108792
0.108362
0.108026
0.107662
0.106981
0.105676
0.103518
0.100503
0.0967642
0.0924767
0.0879502
0.0833462
0.0788576
0.0746165
0.0707899
0.0675084
0.0649048
0.0630071
0.0617123
0.0606917
0.0595867
0.057984
0.0557463
0.0530105
0.0501694
0.0478321
0.0465217
0.0463851
0.0472258
0.0484724
0.0495091
0.0497853
0.0490868
0.0475479
0.0455221
0.0434108
0.0414912
0.0397599
0.038081
0.0361765
0.0338973
0.031199
0.0282377
0.0252391
0.0224476
0.0200771
0.0182685
0.0171178
0.0165974
0.0165464
0.0168391
0.0172069
0.0174706
0.0175252
0.0174423
0.0173314
0.0173135
0.0174628
0.0177399
0.0179665
0.0179096
0.0173302
0.0160678
0.0141591
0.0116087
0.00855309
0.00515204
0.00161094
-0.00180314
-0.00475492
-0.00688569
-0.00786722
-0.00758334
-0.00610796
-0.00379531
-0.00102441
0.00178682
0.0045054
0.00734535
0.0108402
0.015482
0.0216453
0.0292428
0.0378082
0.0465607
0.0547912
0.0620038
0.0683016
0.0741036
0.0800044
0.0864568
0.0934156
0.100289
0.106183
0.110079
0.111322
0.109757
0.105861
0.100516
0.0947314
0.0893053
0.0845324
0.0803087
0.0763282
0.0725192
0.0692972
0.0675802
0.0684529
0.072605
0.0796893
0.0881465
0.0954373
0.0988931
0.0964684
0.0875722
0.0730861
0.0550709
0.0360005
0.0180614
0.00261133
-0.00977369
-0.0191372
-0.0258081
-0.0302038
-0.0326876
-0.0337692
-0.034027
-0.0340958
-0.0345112
-0.0354565
-0.0368742
-0.0384731
-0.0398486
-0.0407916
-0.0413314
-0.0417383
-0.0422265
-0.0429132
-0.0436381
-0.0441218
-0.0441256
-0.0435244
-0.0427079
-0.042627
-0.0448447
-0.0513173
-0.0639077
-0.0838982
-0.111519
-0.144999
-0.180231
-0.210595
-0.227404
-0.220492
-0.179403
-0.0953933
0.0362305
0.213286
0.424249
0.647502
0.853101
1.00791
1.08275
1.06033
0.940636
0.742285
0.498236
0.247543
0.0258794
-0.142199
-0.247043
-0.292931
-0.293959
-0.268113
-0.231787
-0.196918
-0.170032
-0.152941
-0.144413
-0.141744
-0.142208
-0.143676
-0.14488
-0.145358
-0.145153
-0.144487
-0.143551
-0.142528
-0.141475
-0.140318
-0.138934
-0.137264
-0.135167
-0.1326
-0.129606
-0.126286
-0.122804
-0.119381
-0.116112
-0.113027
-0.11013
-0.10728
-0.104369
-0.101481
-0.0987071
-0.0962823
-0.0944562
-0.0933051
-0.0927624
-0.0926192
-0.0924324
-0.0919548
-0.0910907
-0.0899611
-0.0888513
-0.0880296
-0.0876093
-0.0873987
-0.087133
-0.0864469
-0.0850404
-0.0828915
-0.0802081
-0.077354
-0.0748266
-0.0728319
-0.0715073
-0.0707934
-0.0705389
-0.0705537
-0.0707289
-0.0710473
-0.0714346
-0.071923
-0.0724592
-0.072882
-0.0731169
-0.0731055
-0.0728929
-0.0726119
-0.0723721
-0.0722932
-0.0723796
-0.0725713
-0.0727645
-0.072868
-0.0729747
-0.0732141
-0.0737948
-0.0747724
-0.0760402
-0.0774957
-0.0786292
-0.0791103
-0.0785219
-0.0764446
-0.0725535
-0.0666219
-0.058706
-0.0491904
-0.0388761
-0.0288397
-0.0202035
-0.0138416
-0.0101002
-0.00871196
-0.00881928
-0.00927801
-0.00894176
-0.0070064
-0.00306816
0.00269073
0.00979679
0.0176779
0.0258364
0.033837
0.0415489
0.049018
0.0561555
0.0629416
0.0693186
0.075186
0.0805764
0.0854707
0.0899263
0.0939778
0.0975677
0.100612
0.102967
0.104521
0.105283
0.105331
0.104804
0.103823
0.102515
0.101016
0.0994386
0.0979908
0.0969127
0.0962966
0.0961872
0.0964864
0.0969461
0.097267
0.0972025
0.0965871
0.0953464
0.0934721
0.0908791
0.0876174
0.0837137
0.0792757
0.0746428
0.0702359
0.0664536
0.0637115
0.0621103
0.0616159
0.0618552
0.0623719
0.0626332
0.0622533
0.0609961
0.0588377
0.0558924
0.0524988
0.0488938
0.0453828
0.042248
0.0396744
0.0377261
0.0363581
0.0353913
0.034662
0.0340655
0.0335012
0.0330077
0.0326139
0.0322231
0.0316187
0.0305321
0.0286466
0.0258317
0.0221548
0.0179049
0.0135507
0.00966272
0.00660139
0.00453303
0.00328315
0.00251111
0.00173035
0.000555899
-0.00118484
-0.00343111
-0.00593381
-0.00843758
-0.0106699
-0.0125458
-0.0141296
-0.0155495
-0.0168175
-0.0178266
-0.0183456
-0.0180624
-0.0167861
-0.0145881
-0.0118013
-0.00901939
-0.0068866
-0.00586824
-0.00610001
-0.00730649
-0.00902525
-0.0107923
-0.0121308
-0.0129041
-0.0132199
-0.0132321
-0.013077
-0.0127366
-0.011967
-0.0103082
-0.00736729
-0.00277547
0.00348904
0.0111574
0.0197118
0.0284734
0.0369132
0.0447168
0.0518582
0.0585605
0.0651604
0.0719184
0.0787978
0.0855628
0.0917747
0.0967879
0.100158
0.101578
0.100878
0.0982641
0.0940488
0.0887631
0.0830222
0.0773956
0.0723139
0.068028
0.0646053
0.0619774
0.0602079
0.0595377
0.0601353
0.0620092
0.064638
0.0669984
0.0678168
0.0657346
0.0599014
0.0501627
0.0371544
0.0221243
0.00659015
-0.00809169
-0.0209082
-0.0312174
-0.0388351
-0.0439689
-0.0469704
-0.0484441
-0.0490012
-0.0491923
-0.0494358
-0.0500152
-0.0509591
-0.0521701
-0.0534161
-0.054588
-0.055384
-0.0557347
-0.0554491
-0.0544868
-0.0529784
-0.051175
-0.0500813
-0.0513197
-0.0569395
-0.0691088
-0.0894642
-0.118261
-0.15364
-0.191047
-0.223151
-0.24039
-0.231613
-0.185479
-0.0926455
0.051057
0.24121
0.462053
0.686036
0.877241
0.998868
1.0232
0.940514
0.763894
0.526731
0.273889
0.0490096
-0.11723
-0.213283
-0.246338
-0.236049
-0.205567
-0.173834
-0.151416
-0.14066
-0.138717
-0.141238
-0.144642
-0.147322
-0.149116
-0.150622
-0.152203
-0.153875
-0.155299
-0.156124
-0.156119
-0.155298
-0.153788
-0.151799
-0.149595
-0.147355
-0.14524
-0.143357
-0.141727
-0.140275
-0.13877
-0.136959
-0.134584
-0.131599
-0.128153
-0.124709
-0.121783
-0.119777
-0.118827
-0.118637
-0.118651
-0.118256
-0.117042
-0.11493
-0.112261
-0.109564
-0.107346
-0.105841
-0.105028
-0.104605
-0.104149
-0.103291
-0.101775
-0.0995527
-0.0967654
-0.0936558
-0.0906204
-0.0879096
-0.0858303
-0.0844802
-0.0838658
-0.0838228
-0.0841767
-0.0846911
-0.0851558
-0.0853504
-0.0852154
-0.0846548
-0.0837905
-0.0827484
-0.0817413
-0.0809798
-0.0804875
-0.0802704
-0.0801558
-0.0800356
-0.0798184
-0.0796264
-0.0797258
-0.0804636
-0.0820273
-0.0843626
-0.0869942
-0.089336
-0.0906248
-0.0903483
-0.0883006
-0.0845513
-0.0793397
-0.0728847
-0.0653647
-0.0568947
-0.0476179
-0.0378695
-0.0280993
-0.0188436
-0.010415
-0.00280274
0.00425357
0.011225
0.0186426
0.0267878
0.0356849
0.0451406
0.0547564
0.0640937
0.0727344
0.0802542
0.0863122
0.0906481
0.0931925
0.0940998
0.0937314
0.092597
0.0912066
0.0899563
0.0890627
0.0884893
0.0881596
0.0878268
0.0872581
0.0863157
0.0849111
0.0830825
0.0810198
0.0790026
0.0772265
0.0758676
0.0749907
0.0744797
0.0742046
0.0740107
0.0737133
0.0731532
0.0720839
0.0703497
0.0677725
0.0643591
0.0603104
0.0560197
0.0519283
0.0483625
0.0455113
0.0433444
0.041561
0.0397789
0.0377254
0.0351656
0.0321278
0.0287485
0.0252058
0.0218272
0.0189159
0.0167832
0.0156391
0.0155764
0.016488
0.0180019
0.019631
0.0208609
0.0212023
0.0204307
0.0185064
0.015545
0.0117746
0.00740125
0.00263688
-0.0022677
-0.00702434
-0.0113276
-0.0149494
-0.0177111
-0.0196388
-0.0208716
-0.0216398
-0.0222203
-0.022719
-0.0231337
-0.0233287
-0.0231168
-0.0223988
-0.0212069
-0.0197139
-0.0181424
-0.0167084
-0.0156865
-0.0152145
-0.0154753
-0.0164969
-0.0182627
-0.0206388
-0.0232875
-0.025929
-0.0283059
-0.0301982
-0.0313394
-0.0314052
-0.0300201
-0.0268316
-0.0217057
-0.0149952
-0.00741886
0.000160216
0.00709239
0.0132793
0.0192089
0.0258961
0.0341188
0.0441962
0.0555627
0.0668012
0.0762494
0.0825124
0.084907
0.0836414
0.0796224
0.0740269
0.0677274
0.0612789
0.0549269
0.048918
0.0437325
0.0400944
0.0386433
0.0393594
0.0413461
0.0429087
0.042131
0.0375276
0.028641
0.0162618
0.00211507
-0.0119243
-0.0241892
-0.0339566
-0.041232
-0.0463594
-0.0497788
-0.0518137
-0.052552
-0.0522482
-0.0513782
-0.0506187
-0.0507517
-0.0524818
-0.0560946
-0.0613366
-0.067557
-0.0738625
-0.0793535
-0.0833715
-0.0855468
-0.0858873
-0.0845443
-0.0818773
-0.0782606
-0.0741231
-0.0699262
-0.0662368
-0.0639958
-0.064596
-0.0696544
-0.0809213
-0.0997007
-0.12629
-0.159524
-0.195921
-0.229494
-0.251799
-0.252219
-0.218918
-0.141289
-0.0132327
0.16283
0.372779
0.590046
0.779247
0.90368
0.935622
0.864995
0.703915
0.484043
0.247865
0.036593
-0.120795
-0.213304
-0.24718
-0.24024
-0.213565
-0.184644
-0.163655
-0.153312
-0.151523
-0.154232
-0.157705
-0.159695
-0.159543
-0.157553
-0.154518
-0.151228
-0.148308
-0.146072
-0.144515
-0.143447
-0.142602
-0.141703
-0.140553
-0.139013
-0.136964
-0.134355
-0.131259
-0.127807
-0.124357
-0.121212
-0.118629
-0.116623
-0.115056
-0.113673
-0.112253
-0.110787
-0.109452
-0.108443
-0.107873
-0.107631
-0.10746
-0.107074
-0.106287
-0.105125
-0.103948
-0.103095
-0.102883
-0.103351
-0.104333
-0.105349
-0.10592
-0.105566
-0.103885
-0.100862
-0.0966479
-0.0917473
-0.0868109
-0.0825163
-0.0793673
-0.0776635
-0.0773622
-0.0781521
-0.0795761
-0.0812027
-0.0827841
-0.0842759
-0.0857855
-0.0874382
-0.0892829
-0.0912181
-0.0928788
-0.0938645
-0.0938681
-0.0928759
-0.0912694
-0.0898315
-0.0894661
-0.0910222
-0.0948563
-0.100713
-0.107786
-0.114854
-0.120654
-0.124287
-0.125282
-0.123543
-0.11927
-0.112681
-0.104024
-0.0935984
-0.0816385
-0.0686065
-0.0550011
-0.0413324
-0.0280724
-0.0154617
-0.00364042
0.00750267
0.0181449
0.0284701
0.0385462
0.0483917
0.0578166
0.0666139
0.0744563
0.08114
0.0864797
0.0904359
0.0929863
0.0942583
0.0944325
0.0936889
0.0923604
0.0907584
0.089112
0.0876563
0.0861937
0.0845178
0.0823225
0.0794333
0.0760923
0.0728403
0.0705062
0.0697904
0.0709894
0.0736931
0.0770159
0.0797014
0.0806302
0.0792453
0.075638
0.0704304
0.0645161
0.0586961
0.053516
0.0491367
0.0454526
0.0423028
0.0396562
0.0375456
0.0360764
0.0350439
0.0341404
0.0327776
0.0304483
0.0268787
0.02231
0.0175047
0.0135202
0.0112064
0.0109287
0.012413
0.0147947
0.0169787
0.0180608
0.0175158
0.0154027
0.0121822
0.00861935
0.00536117
0.00282522
0.00106792
-0.000183041
-0.00130104
-0.0026412
-0.00441865
-0.0064961
-0.00858888
-0.0103764
-0.0116538
-0.0124518
-0.0128588
-0.0129289
-0.0126114
-0.01169
-0.00992492
-0.00733547
-0.00427736
-0.00136074
0.000674719
0.00128981
0.00037795
-0.00176676
-0.00459793
-0.00757969
-0.0102576
-0.012392
-0.0138503
-0.0143577
-0.0135778
-0.0111942
-0.00703586
-0.00135135
0.00529789
0.0121956
0.018749
0.0247841
0.0306171
0.0368325
0.044066
0.052551
0.0618283
0.0709215
0.0786176
0.0839045
0.0863433
0.0861695
0.0840478
0.0807077
0.0765975
0.071749
0.0660137
0.0595064
0.0528118
0.0471752
0.044037
0.0444644
0.0485665
0.0551954
0.0621453
0.0668061
0.0669472
0.061338
0.0500438
0.034294
0.0160515
-0.00264837
-0.0199938
-0.0347479
-0.0461847
-0.0540236
-0.0584457
-0.0598228
-0.0587976
-0.0562003
-0.052889
-0.0496158
-0.0470653
-0.0457527
-0.0458991
-0.0475691
-0.0504682
-0.0540478
-0.0574925
-0.0600356
-0.0610929
-0.060554
-0.0588633
-0.0571141
-0.0569291
-0.0602315
-0.0688777
-0.0841432
-0.106441
-0.134803
-0.166373
-0.196201
-0.21708
-0.220016
-0.194699
-0.130944
-0.021105
0.136572
0.334706
0.554701
0.767212
0.936825
1.03007
1.02473
0.917314
0.725554
0.484522
0.237266
0.0231162
-0.131957
-0.219954
-0.249155
-0.238092
-0.207759
-0.17515
-0.150031
-0.135344
-0.129548
-0.129331
-0.131559
-0.134274
-0.136585
-0.138325
-0.13952
-0.140227
-0.140665
-0.140987
-0.141323
-0.141812
-0.142414
-0.142982
-0.143258
-0.14301
-0.142161
-0.140792
-0.139171
-0.137496
-0.13595
-0.134403
-0.132576
-0.130102
-0.126831
-0.122823
-0.118458
-0.114173
-0.110412
-0.107305
-0.104752
-0.1025
-0.100303
-0.0981361
-0.0961089
-0.0944538
-0.0934217
-0.0930221
-0.0931231
-0.0933073
-0.0931814
-0.0923856
-0.0907247
-0.0883087
-0.0853484
-0.0822747
-0.0794275
-0.0771285
-0.0755144
-0.0745744
-0.0741609
-0.0741603
-0.0744122
-0.0749236
-0.0755927
-0.0763592
-0.077147
-0.0778786
-0.0785452
-0.0792098
-0.080114
-0.0814262
-0.0832239
-0.0854678
-0.0879304
-0.090471
-0.0929807
-0.0955397
-0.0983166
-0.101497
-0.105201
-0.10935
-0.113708
-0.117949
-0.121668
-0.124493
-0.126038
-0.12588
-0.123552
-0.118551
-0.110554
-0.0994892
-0.0856318
-0.069708
-0.0528517
-0.0362979
-0.0211021
-0.0079824
0.00289784
0.0118107
0.0194346
0.0264946
0.0337022
0.0415349
0.0501337
0.0594778
0.0693353
0.0793778
0.0892132
0.0984549
0.106703
0.113591
0.118787
0.122215
0.123903
0.124022
0.122976
0.121148
0.118832
0.11617
0.113377
0.110584
0.107949
0.105733
0.104111
0.103269
0.103154
0.103584
0.104201
0.104681
0.104695
0.104059
0.102722
0.100778
0.0983112
0.095442
0.0922982
0.0889672
0.0856158
0.0822552
0.0789486
0.0757694
0.0727327
0.0698846
0.0673195
0.0652883
0.06392
0.0632961
0.0634022
0.0639994
0.0647637
0.0652187
0.064984
0.063711
0.0612292
0.057516
0.052783
0.0473375
0.041563
0.0358091
0.0304054
0.0256866
0.0218591
0.0190505
0.0173218
0.0166115
0.0166739
0.0172081
0.0178221
0.0182851
0.0185281
0.0186497
0.0188536
0.0193558
0.0201717
0.0212391
0.0222619
0.0229785
0.0230684
0.0224616
0.0211772
0.0193426
0.0170835
0.014517
0.0117306
0.0088791
0.00623644
0.00405104
0.00261653
0.00211082
0.00250584
0.00354984
0.00485058
0.00591737
0.00641158
0.00614715
0.00519821
0.00387265
0.002743
0.00266159
0.00459949
0.00924589
0.0168735
0.0270905
0.0388987
0.0508896
0.0616952
0.0703503
0.0766104
0.0808453
0.0838232
0.0863226
0.0888432
0.0915271
0.0941885
0.0965534
0.0982736
0.0990424
0.0985952
0.0967851
0.0936136
0.0892477
0.0840861
0.0787222
0.0738712
0.0702144
0.0682813
0.0684481
0.0707153
0.0744348
0.0783852
0.0809379
0.0803709
0.0755174
0.0659837
0.0524065
0.0362264
0.0192534
0.00302579
-0.011357
-0.0234805
-0.0332609
-0.0407921
-0.0461341
-0.0493686
-0.0506145
-0.0502234
-0.0487143
-0.0467291
-0.0449887
-0.0440238
-0.0440842
-0.045046
-0.046573
-0.0482033
-0.0494887
-0.0501008
-0.0498968
-0.0487869
-0.046935
-0.0446264
-0.0422715
-0.0406595
-0.0409274
-0.0446126
-0.053484
-0.068979
-0.0918635
-0.121697
-0.156108
-0.190453
-0.217689
-0.228921
-0.213851
-0.162069
-0.0649676
0.0813526
0.272903
0.494961
0.721409
0.917591
1.04715
1.08155
1.00913
0.840261
0.605889
0.349579
0.115191
-0.0645705
-0.17551
-0.222119
-0.222133
-0.198041
-0.169287
-0.147615
-0.13681
-0.134999
-0.138275
-0.142876
-0.146474
-0.14819
-0.148052
-0.14644
-0.143931
-0.141158
-0.13879
-0.137414
-0.137255
-0.138212
-0.139856
-0.141559
-0.142705
-0.142814
-0.141683
-0.139386
-0.136225
-0.132614
-0.128988
-0.125681
-0.122849
-0.120445
-0.118345
-0.116471
-0.114697
-0.112885
-0.110972
-0.108846
-0.106406
-0.103629
-0.10066
-0.0977511
-0.0952574
-0.093434
-0.0924677
-0.0922386
-0.0925385
-0.0930393
-0.0933951
-0.0935169
-0.0933357
-0.0928767
-0.0921692
-0.0911134
-0.0895575
-0.0873573
-0.0845322
-0.0812409
-0.0778164
-0.0745808
-0.0717383
-0.0693499
-0.0673167
-0.0654649
-0.0637036
-0.0620948
-0.0608335
-0.0601959
-0.0604013
-0.0615939
-0.0636756
-0.0664439
-0.0695272
-0.0725717
-0.0754352
-0.0780967
-0.0806518
-0.0832874
-0.0859656
-0.0885822
-0.0908126
-0.0923217
-0.0927612
-0.0919769
-0.0898474
-0.0862659
-0.0810122
-0.0738609
-0.0645146
-0.0529854
-0.0396881
-0.0253523
-0.0109733
0.00247401
0.0144012
0.0246487
0.0334859
0.0414137
0.0490261
0.0566535
0.0643998
0.0722005
0.0797519
0.0868072
0.093027
0.0981678
0.101967
0.104319
0.105304
0.105112
0.104178
0.103023
0.1021
0.101823
0.102294
0.10338
0.104729
0.105875
0.106329
0.105851
0.104342
0.101936
0.0989535
0.095855
0.0929535
0.090492
0.0885194
0.0868787
0.0853702
0.083734
0.0818753
0.0797272
0.0773945
0.075021
0.0725545
0.0700215
0.0672509
0.064191
0.060816
0.0571459
0.0533509
0.0495057
0.045712
0.0419982
0.0384212
0.0350082
0.0318056
0.0288722
0.0262402
0.0238555
0.0217244
0.0197719
0.0179446
0.0162023
0.0144978
0.0127825
0.0109854
0.0090521
0.00695199
0.00465763
0.0022833
-6.21337e-5
-0.00215268
-0.00384465
-0.00496185
-0.00543473
-0.005268
-0.00455006
-0.00342528
-0.00214027
-0.000907059
8.23732e-6
0.000480339
0.000456219
3.45445e-5
-0.000656811
-0.00145626
-0.0024127
-0.00358697
-0.00522148
-0.00748479
-0.0104728
-0.0140284
-0.017719
-0.0209181
-0.0230501
-0.0236991
-0.0228713
-0.020903
-0.0184003
-0.0160467
-0.0142713
-0.0133339
-0.0130094
-0.0127692
-0.0119285
-0.00975983
-0.00565183
0.000650874
0.0089595
0.0185881
0.0285535
0.0376546
0.0450914
0.0505322
0.0543633
0.0573829
0.0605832
0.0646924
0.0699551
0.0760175
0.0822045
0.0876128
0.0915614
0.0936624
0.0939122
0.0925572
0.089976
0.0866801
0.0829612
0.0789933
0.0748585
0.0705961
0.0663989
0.0627224
0.0603241
0.0598764
0.0615674
0.0648761
0.0683889
0.0701493
0.0681687
0.0611655
0.0490398
0.032841
0.0144655
-0.00387207
-0.0202497
-0.0333444
-0.0425367
-0.0478646
-0.0498969
-0.0495013
-0.0477318
-0.0456788
-0.0441504
-0.0437085
-0.0444601
-0.0461643
-0.0484578
-0.0508917
-0.0531123
-0.0548995
-0.0560997
-0.0565881
-0.0562563
-0.0552106
-0.0536071
-0.0518725
-0.050853
-0.0517843
-0.0561206
-0.0654669
-0.0810682
-0.103469
-0.132101
-0.164854
-0.19761
-0.224286
-0.237035
-0.227036
-0.185167
-0.103347
0.0232698
0.193925
0.400198
0.624657
0.841522
1.02008
1.13051
1.15074
1.07278
0.906023
0.675821
0.417821
0.169621
-0.0376767
-0.185564
-0.27006
-0.299896
-0.291384
-0.262737
-0.229166
-0.200468
-0.18072
-0.16971
-0.164744
-0.162758
-0.161487
-0.159783
-0.157464
-0.154904
-0.152639
-0.151077
-0.150261
-0.149937
-0.149607
-0.148767
-0.147068
-0.144459
-0.141229
-0.137929
-0.135055
-0.133018
-0.131961
-0.131617
-0.131686
-0.131726
-0.131387
-0.130399
-0.128599
-0.125949
-0.122579
-0.118661
-0.114469
-0.110318
-0.106436
-0.102878
-0.0996405
-0.0964922
-0.0933448
-0.0902138
-0.087366
-0.0851328
-0.0838984
-0.0839226
-0.085122
-0.0870636
-0.0892363
-0.0910041
-0.0919383
-0.0918794
-0.090927
-0.0894461
-0.0878008
-0.0863513
-0.085278
-0.0846355
-0.0843323
-0.0843815
-0.0847235
-0.0853497
-0.086219
-0.0872278
-0.0881911
-0.0889073
-0.0891017
-0.0886186
-0.0874129
-0.0856276
-0.0835217
-0.0814422
-0.0798053
-0.0788949
-0.0788313
-0.0795997
-0.0809803
-0.0828047
-0.0847938
-0.0866188
-0.0878782
-0.0879378
-0.0860471
-0.0816055
-0.0743496
-0.0645395
-0.0530632
-0.04108
-0.0298628
-0.0203768
-0.0130443
-0.00782613
-0.00432903
-0.00199468
-0.000242972
0.00143306
0.00349805
0.00627829
0.0101
0.0151002
0.0212969
0.0284631
0.036219
0.044115
0.0516572
0.0585633
0.0646565
0.0699237
0.0743578
0.0780456
0.0809001
0.0829412
0.0841581
0.084575
0.0843649
0.0835752
0.0822874
0.0805817
0.0784821
0.0760836
0.0737234
0.0718166
0.0705949
0.0702102
0.0704635
0.0709107
0.0710701
0.0706527
0.0696241
0.0682869
0.0671738
0.0665808
0.0667031
0.067408
0.0682953
0.0688564
0.0686565
0.0673732
0.064897
0.0613042
0.0567838
0.0517234
0.0464695
0.0412977
0.0364106
0.0319289
0.027905
0.0243114
0.0211896
0.018471
0.0161105
0.0140286
0.0121639
0.010584
0.00941804
0.0088258
0.00882979
0.00939431
0.0101521
0.0106471
0.0104384
0.00917659
0.0068073
0.00351494
-0.00023457
-0.00379242
-0.00658959
-0.00818049
-0.0085302
-0.00803041
-0.00731838
-0.0071297
-0.00800355
-0.0100717
-0.0130196
-0.0162433
-0.01917
-0.0213654
-0.0227754
-0.023644
-0.0242815
-0.0249461
-0.0256844
-0.026415
-0.0269775
-0.0273542
-0.0275748
-0.0278196
-0.0281724
-0.0285881
-0.0289143
-0.0290261
-0.0288223
-0.0283933
-0.0279049
-0.0275227
-0.0273516
-0.0273233
-0.0272493
-0.0268763
-0.026125
-0.0249623
-0.0236689
-0.0226124
-0.0220909
-0.0222705
-0.0228467
-0.0231223
-0.0220617
-0.018737
-0.0126092
-0.00381469
0.0067148
0.0176927
0.0277791
0.0360953
0.0425125
0.047595
0.0522472
0.0573458
0.0634294
0.0704062
0.0777352
0.0846101
0.0901405
0.0936202
0.0947665
0.0935211
0.0903244
0.0858181
0.0806502
0.0754335
0.0704566
0.0657483
0.0612102
0.0568469
0.0529472
0.0500481
0.048555
0.0483834
0.0488452
0.0485418
0.0458898
0.0395765
0.0291723
0.0152303
-0.000889461
-0.017384
-0.0325512
-0.045181
-0.0546529
-0.0608665
-0.0641593
-0.0651135
-0.0645231
-0.0631809
-0.0617278
-0.0606716
-0.0601902
-0.0602695
-0.060816
-0.0616239
-0.062589
-0.0636954
-0.0648689
-0.0660056
-0.0670116
-0.0677066
-0.0679185
-0.0675605
-0.0666286
-0.0652883
-0.0638138
-0.0627516
-0.0630215
-0.0659239
-0.0730028
-0.0856998
-0.104922
-0.130663
-0.161441
-0.194053
-0.223343
-0.242387
-0.242982
-0.215982
-0.15262
-0.0465038
0.103709
0.291487
0.500526
0.705074
0.87347
0.974837
0.987054
0.903812
0.73759
0.517498
0.281743
0.0676532
-0.0976497
-0.20237
-0.250109
-0.255334
-0.236847
-0.211258
-0.18923
-0.174974
-0.167943
-0.165228
-0.163794
-0.16187
-0.158946
-0.155452
-0.151959
-0.148837
-0.14616
-0.143791
-0.141448
-0.139003
-0.136467
-0.133949
-0.131519
-0.129228
-0.126948
-0.12455
-0.121941
-0.119189
-0.116568
-0.114544
-0.1135
-0.113539
-0.114493
-0.115694
-0.116275
-0.11552
-0.113113
-0.109221
-0.104649
-0.100312
-0.0971098
-0.0955297
-0.0955101
-0.0965164
-0.0977632
-0.0985539
-0.0984331
-0.0974032
-0.0956379
-0.0935354
-0.0915529
-0.0899997
-0.0890457
-0.0887543
-0.0890776
-0.0899804
-0.0913629
-0.0930273
-0.0947129
-0.0961208
-0.0969258
-0.0968598
-0.0958241
-0.0938111
-0.0909487
-0.0875246
-0.0837923
-0.0800873
-0.0767415
-0.0739095
-0.071778
-0.0704247
-0.0698237
-0.0698194
-0.0703902
-0.0714211
-0.0729866
-0.0753395
-0.0787792
-0.0835329
-0.0896672
-0.0968963
-0.104425
-0.111275
-0.116249
-0.118367
-0.117021
-0.112111
-0.104016
-0.0936818
-0.0821447
-0.0705372
-0.0599166
-0.051046
-0.0442573
-0.039723
-0.0372456
-0.0364263
-0.0366799
-0.0373758
-0.037839
-0.0374716
-0.035846
-0.0327604
-0.0281976
-0.0223791
-0.0155179
-0.00784158
0.000390033
0.00900999
0.0177392
0.0264442
0.0349438
0.0431476
0.0510706
0.05895
0.0668896
0.0749975
0.0831786
0.091139
0.0983657
0.104403
0.108933
0.111989
0.113835
0.115009
0.116011
0.117153
0.118444
0.119714
0.120625
0.12086
0.120243
0.118773
0.116506
0.113658
0.110532
0.1074
0.104529
0.102103
0.100068
0.0980281
0.0955055
0.0919695
0.0872428
0.0815586
0.0756093
0.0703279
0.0665014
0.0644538
0.0640351
0.0646557
0.0657103
0.0667037
0.0675183
0.068204
0.0688781
0.0695244
0.0698483
0.0693439
0.0676997
0.0646748
0.0604532
0.0554538
0.0502993
0.0454592
0.0412956
0.0378786
0.0351158
0.0328494
0.0308491
0.0290103
0.0272934
0.0256067
0.023867
0.0219976
0.0199153
0.0176606
0.0154921
0.0137594
0.0128991
0.0132171
0.0148115
0.0174746
0.0207301
0.0239374
0.0264263
0.0276902
0.027391
0.0255157
0.0223901
0.0185201
0.0144135
0.0106106
0.00740686
0.00489755
0.00295049
0.0013894
-9.76725e-5
-0.00155599
-0.00304246
-0.00441035
-0.0055801
-0.00657732
-0.00761662
-0.00883845
-0.0102685
-0.0115228
-0.0119543
-0.0106339
-0.006778
-3.69892e-5
0.00923688
0.0200595
0.031094
0.0410986
0.0492693
0.055491
0.0602386
0.0643671
0.0686731
0.0735061
0.0787184
0.0835835
0.0872715
0.089046
0.0886721
0.0863396
0.0826304
0.0783224
0.0741556
0.0706888
0.0683984
0.067664
0.068773
0.0717063
0.0758334
0.0799414
0.082303
0.0811017
0.0750665
0.0639001
0.0484159
0.030443
0.0123208
-0.00392721
-0.0167959
-0.0257581
-0.0309529
-0.0330008
-0.032787
-0.0311997
-0.0290409
-0.0269455
-0.0253832
-0.0246896
-0.02503
-0.0263985
-0.0285877
-0.031214
-0.0338092
-0.03591
-0.0370994
-0.0372171
-0.0363877
-0.0350515
-0.0337252
-0.0327866
-0.0323642
-0.0323534
-0.0324925
-0.0326086
-0.0330679
-0.0347942
-0.0393291
-0.04846
-0.0637385
-0.0860512
-0.114858
-0.147742
-0.179795
-0.203956
-0.21115
-0.191006
-0.133323
-0.0303095
0.120489
0.313024
0.530595
0.746138
0.925765
1.0361
1.05287
0.96869
0.796619
0.567741
0.323062
0.102543
-0.0650767
-0.167863
-0.210524
-0.209393
-0.184928
-0.154808
-0.130121
-0.114922
-0.108418
-0.107523
-0.109166
-0.111294
-0.112952
-0.1139
-0.114104
-0.113613
-0.112583
-0.111285
-0.110037
-0.109132
-0.108606
-0.108426
-0.108356
-0.108168
-0.10773
-0.107038
-0.106108
-0.104873
-0.103321
-0.101345
-0.0988635
-0.0959037
-0.0925863
-0.08913
-0.0857954
-0.0827783
-0.0801848
-0.0780516
-0.0763398
-0.0749592
-0.0738659
-0.0731018
-0.0726581
-0.0726119
-0.0730146
-0.0738516
-0.0750991
-0.0765551
-0.0780328
-0.0792803
-0.0801666
-0.0806491
-0.0808514
-0.081007
-0.0812197
-0.0816312
-0.0821984
-0.0828414
-0.0835657
-0.0843276
-0.0851197
-0.0859339
-0.0866479
-0.0870329
-0.0868748
-0.0860718
-0.0847021
-0.0830117
-0.0812889
-0.0797338
-0.0783504
-0.0770518
-0.0757116
-0.0744181
-0.073522
-0.0735239
-0.0749786
-0.0782355
-0.0832543
-0.0896276
-0.0967481
-0.103897
-0.110386
-0.115607
-0.119065
-0.120275
-0.118988
-0.115025
-0.10857
-0.100006
-0.0899955
-0.0794141
-0.0691752
-0.0600246
-0.0524682
-0.0465577
-0.0419535
-0.0379277
-0.0336087
-0.0281251
-0.020857
-0.0116864
-0.000848952
0.0110045
0.0230925
0.0346854
0.0452959
0.0547863
0.0631562
0.0706452
0.0774996
0.0837142
0.0892559
0.0938974
0.0975294
0.100008
0.101437
0.102044
0.102185
0.102319
0.102851
0.103896
0.105446
0.107174
0.108703
0.109583
0.109556
0.108568
0.106696
0.104182
0.101278
0.0981998
0.0950322
0.091809
0.0886054
0.0853837
0.0821448
0.0789856
0.0759511
0.0731572
0.0707897
0.0689959
0.0679036
0.0675905
0.0679999
0.0688602
0.0697488
0.0703126
0.070064
0.0689365
0.0669023
0.0642548
0.0612305
0.057983
0.0545647
0.0509549
0.047146
0.0432458
0.0395114
0.0362401
0.0336877
0.0318929
0.0307903
0.030099
0.0296037
0.029089
0.0283554
0.027378
0.0259904
0.0241201
0.0217153
0.0189034
0.0159364
0.0131011
0.0108799
0.0094136
0.00883389
0.00896645
0.00953973
0.0101793
0.0105272
0.0103254
0.00936497
0.00762149
0.00523012
0.002505
-0.000114129
-0.00212875
-0.00318307
-0.00316439
-0.00236919
-0.00123726
-0.000419503
-0.00045502
-0.00156562
-0.00368782
-0.00640198
-0.00919641
-0.0115213
-0.0131298
-0.0140625
-0.0145405
-0.0149586
-0.0155852
-0.0164734
-0.0175769
-0.0186671
-0.0195226
-0.0198456
-0.0193278
-0.0176264
-0.0142964
-0.00898434
-0.00153566
0.00777865
0.0182632
0.0289395
0.0387363
0.046962
0.0534213
0.0585034
0.0629449
0.0675559
0.0727953
0.0785086
0.0840782
0.0885415
0.0910662
0.0912414
0.0891056
0.0851336
0.0801332
0.0749322
0.0703828
0.0672938
0.0663533
0.0680314
0.0721455
0.0777326
0.0830488
0.0859192
0.0843665
0.0772425
0.0646434
0.0478681
0.0289903
0.0102414
-0.00654617
-0.0203587
-0.0308703
-0.0383408
-0.043263
-0.0462345
-0.0478489
-0.0486648
-0.0490033
-0.0489632
-0.0484927
-0.0474133
-0.0456021
-0.0431943
-0.0404872
-0.0380345
-0.0363019
-0.0355909
-0.0359863
-0.0372908
-0.0392144
-0.0412983
-0.0431037
-0.0443007
-0.0447562
-0.0445965
-0.0444362
-0.0455043
-0.0496631
-0.0589963
-0.0753278
-0.0996022
-0.131378
-0.167779
-0.203307
-0.230094
-0.238305
-0.216951
-0.155378
-0.0455227
0.114807
0.318647
0.54737
0.770932
0.952156
1.05506
1.05509
0.947589
0.750928
0.502648
0.248952
0.0317134
-0.122338
-0.206516
-0.231789
-0.219464
-0.192136
-0.166672
-0.150994
-0.145547
-0.146711
-0.150267
-0.153331
-0.155
-0.155627
-0.155899
-0.156144
-0.156202
-0.15566
-0.154234
-0.151826
-0.148698
-0.145182
-0.141818
-0.13889
-0.136642
-0.135014
-0.133864
-0.133014
-0.132186
-0.131215
-0.129959
-0.128316
-0.126189
-0.123509
-0.120348
-0.116872
-0.113317
-0.109935
-0.106953
-0.104556
-0.102752
-0.10158
-0.101095
-0.101328
-0.1022
-0.10357
-0.105071
-0.106296
-0.106762
-0.106142
-0.104348
-0.101677
-0.0985271
-0.0954492
-0.0928524
-0.0909932
-0.089902
-0.0894453
-0.0893621
-0.0894834
-0.0895464
-0.0895271
-0.0894189
-0.0892834
-0.0891565
-0.0890461
-0.0889985
-0.089009
-0.0890719
-0.0891949
-0.0894457
-0.0898113
-0.0902507
-0.0906097
-0.0906426
-0.0902823
-0.0895693
-0.0887656
-0.0883229
-0.0885419
-0.0895942
-0.0914475
-0.0937416
-0.0959095
-0.097383
-0.097526
-0.0958657
-0.0919557
-0.0855277
-0.0765243
-0.0651468
-0.0518768
-0.037489
-0.0228576
-0.00887237
0.00373271
0.0145525
0.0234876
0.0306738
0.0363565
0.0408456
0.0445706
0.0478842
0.0511868
0.0548863
0.0592541
0.0643463
0.070072
0.0761309
0.0820578
0.0874909
0.0921584
0.0958767
0.0985796
0.100229
0.100862
0.100511
0.0992627
0.0972192
0.0944496
0.0911006
0.0873937
0.0835677
0.0798721
0.07657
0.0738962
0.0718876
0.0704372
0.0693748
0.0684844
0.0675849
0.0665375
0.0652565
0.0637082
0.0618706
0.0597948
0.0575905
0.0554141
0.0534111
0.0516989
0.0502101
0.0487952
0.047171
0.0450418
0.0422078
0.0386061
0.0343661
0.0297299
0.0250121
0.020552
0.0166655
0.0135484
0.0113571
0.0101089
0.00967435
0.00985619
0.0102765
0.0105742
0.0103948
0.00954216
0.00797546
0.00594972
0.0038356
0.00207119
0.00101267
0.000785615
0.00146708
0.00279225
0.00446244
0.00617073
0.00758026
0.00836371
0.00824541
0.00698744
0.00456413
0.00117328
-0.00274894
-0.00668087
-0.0100744
-0.0126013
-0.01408
-0.0146467
-0.014512
-0.0139819
-0.0132743
-0.0126404
-0.0121758
-0.0119552
-0.0120204
-0.0123745
-0.012856
-0.0132698
-0.013417
-0.0131541
-0.0124133
-0.0113791
-0.01033
-0.00953531
-0.00919168
-0.00920424
-0.00917121
-0.00847123
-0.00638596
-0.00249909
0.00328387
0.010552
0.0184909
0.0261523
0.0328767
0.0384118
0.0430758
0.0476853
0.0531614
0.0600049
0.068166
0.0768534
0.0847932
0.0906639
0.0935081
0.0931656
0.0902161
0.0858249
0.0813308
0.0776991
0.0752478
0.0736966
0.0724312
0.0709659
0.0692751
0.0679177
0.0674875
0.0682184
0.0695068
0.0699605
0.0677128
0.0613053
0.0501724
0.0350206
0.0175318
-0.000108185
-0.0159978
-0.0288206
-0.038101
-0.0440711
-0.0473052
-0.0486039
-0.0487806
-0.0485084
-0.0483323
-0.0486053
-0.0494056
-0.0507077
-0.0524507
-0.0544757
-0.056694
-0.0589886
-0.0610386
-0.0624325
-0.0628403
-0.0621595
-0.0607749
-0.0597419
-0.0604654
-0.0643247
-0.0721797
-0.0840675
-0.0993248
-0.117159
-0.137134
-0.159274
-0.183789
-0.210312
-0.236866
-0.259301
-0.271271
-0.264389
-0.229209
-0.156426
-0.0395347
0.121839
0.318742
0.530852
0.727541
0.873388
0.937147
0.901574
0.770077
0.567515
0.333446
0.110918
-0.0656283
-0.178564
-0.228852
-0.231548
-0.207818
-0.176968
-0.151536
-0.136118
-0.129637
-0.128558
-0.129412
-0.130131
-0.129908
-0.128953
-0.127718
-0.126567
-0.125814
-0.125648
-0.126139
-0.12711
-0.128016
-0.128175
-0.126832
-0.123517
-0.118215
-0.111469
-0.104171
-0.0974264
-0.0921723
-0.0889268
-0.0878159
-0.0885233
-0.0903647
-0.0925999
-0.0945692
-0.0957743
-0.0960234
-0.0953594
-0.0939654
-0.092162
-0.090179
-0.0881317
-0.0860525
-0.0838721
-0.0816016
-0.0792274
-0.0769852
-0.0750457
-0.0735998
-0.0727255
-0.0722901
-0.072063
-0.0717277
-0.070963
-0.0695478
-0.0675836
-0.0652624
-0.0629692
-0.0611663
-0.0602278
-0.0602932
-0.0613509
-0.0631014
-0.0650285
-0.0666861
-0.0675479
-0.0673612
-0.0661552
-0.0642528
-0.0622585
-0.0606735
-0.060022
-0.0603863
-0.0617233
-0.0636682
-0.0659932
-0.0686066
-0.0715302
-0.0749418
-0.0789387
-0.08342
-0.0880268
-0.0921621
-0.095118
-0.0962873
-0.0952495
-0.0918572
-0.086195
-0.0786079
-0.0696515
-0.0599192
-0.0501006
-0.0407794
-0.032268
-0.0245046
-0.0170781
-0.00938299
-0.000797141
0.00889197
0.0194444
0.0300999
0.0400094
0.0484241
0.0549546
0.0596731
0.0630003
0.0653249
0.0669591
0.0678856
0.067894
0.0667464
0.0643694
0.0610798
0.0575689
0.0547529
0.0535359
0.054509
0.0576784
0.0626372
0.0684662
0.0740429
0.0784142
0.0809295
0.0813018
0.0796307
0.0762965
0.0719216
0.0671842
0.0627735
0.0592713
0.057044
0.056136
0.0562306
0.0566975
0.056738
0.0556649
0.0530159
0.0487375
0.0432211
0.03711
0.0311233
0.0258251
0.0215546
0.0184413
0.0162
0.0145097
0.0130168
0.0114849
0.00980684
0.00812303
0.00655483
0.00531081
0.00441769
0.00371493
0.00292718
0.0017685
0.000131489
-0.00191231
-0.00405056
-0.00599127
-0.00748684
-0.00856302
-0.00945472
-0.0104766
-0.0119765
-0.01409
-0.0166443
-0.0192679
-0.0214765
-0.0229004
-0.0233382
-0.0229707
-0.0221781
-0.0214215
-0.0210933
-0.0213503
-0.0220182
-0.0228304
-0.023354
-0.0233645
-0.0227666
-0.0217532
-0.020599
-0.0196795
-0.0192136
-0.0192017
-0.0194493
-0.0196061
-0.0194409
-0.0187961
-0.0177728
-0.0167099
-0.0159903
-0.0158286
-0.0162069
-0.0167846
-0.0169031
-0.0158015
-0.0129073
-0.00802614
-0.00129297
0.00672718
0.0152118
0.0234563
0.0308769
0.0373648
0.0430955
0.0486101
0.0544001
0.0608349
0.0677639
0.0746494
0.0806353
0.0848586
0.086784
0.0862743
0.0835933
0.0792865
0.073818
0.067649
0.0613319
0.0557757
0.0522761
0.052206
0.0564918
0.0651072
0.0765483
0.0880761
0.0965081
0.099075
0.0942489
0.0821538
0.0643405
0.0432782
0.0214828
0.000912729
-0.0172113
-0.0323528
-0.0444388
-0.0535718
-0.059842
-0.0633882
-0.0644525
-0.0634429
-0.0610099
-0.0579021
-0.0548937
-0.0525334
-0.0511724
-0.050813
-0.0511418
-0.0517636
-0.0522423
-0.0523893
-0.052263
-0.0522867
-0.0533157
-0.0565978
-0.063623
-0.07587
-0.0944589
-0.119848
-0.151118
-0.185323
-0.217038
-0.238118
-0.237895
-0.204204
-0.126092
0.00258726
0.179212
0.389069
0.605093
0.791644
0.912574
0.941169
0.868635
0.707867
0.490482
0.258006
0.0501083
-0.10567
-0.199025
-0.23602
-0.233116
-0.209895
-0.182434
-0.160205
-0.146316
-0.139784
-0.137942
-0.138312
-0.139171
-0.139789
-0.139879
-0.139412
-0.138476
-0.137383
-0.136465
-0.135985
-0.13609
-0.136787
-0.137875
-0.139006
-0.139752
-0.139478
-0.137673
-0.134053
-0.128688
-0.12222
-0.115715
-0.110168
-0.106309
-0.104379
-0.104036
-0.104715
-0.105852
-0.107072
-0.108249
-0.109482
-0.110715
-0.111722
-0.112314
-0.112217
-0.111401
-0.109933
-0.108002
-0.105773
-0.103262
-0.10025
-0.0964158
-0.0916228
-0.0859796
-0.0798188
-0.0738687
-0.0688121
-0.0651902
-0.0632564
-0.0629615
-0.0639003
-0.0656639
-0.0678502
-0.0702643
-0.0728483
-0.075605
-0.0783695
-0.0809516
-0.0831104
-0.0846377
-0.0854976
-0.0857302
-0.0856391
-0.0855405
-0.0856607
-0.086172
-0.0872399
-0.0890493
-0.0917656
-0.095446
-0.100037
-0.105147
-0.110356
-0.115158
-0.119175
-0.122119
-0.12375
-0.123792
-0.121892
-0.11764
-0.110699
-0.101018
-0.0888242
-0.0747007
-0.0594147
-0.0436106
-0.0278966
-0.0126915
0.0018188
0.0155299
0.0283621
0.0402973
0.05118
0.060917
0.0693299
0.0763014
0.0818269
0.0859388
0.0888404
0.0907282
0.0919218
0.0926427
0.0929962
0.0931312
0.0929951
0.0926389
0.0921454
0.0916619
0.0913431
0.0913309
0.0916062
0.0919697
0.0921218
0.0917083
0.0904487
0.0883568
0.0856862
0.0828291
0.080305
0.0783921
0.0771202
0.0762892
0.0756092
0.0748726
0.0740264
0.0731666
0.0723346
0.0715264
0.0705116
0.0688833
0.0664011
0.0630337
0.0590258
0.0549348
0.0512066
0.0481198
0.0456943
0.0435762
0.0413629
0.0387179
0.035588
0.0321496
0.0287732
0.0258932
0.023731
0.0223587
0.0216957
0.0215478
0.0217164
0.0220368
0.0223599
0.0225367
0.0225132
0.0222884
0.0219096
0.0215505
0.021283
0.0210028
0.0205844
0.0197259
0.0183762
0.0167107
0.0150691
0.0139201
0.013544
0.0139372
0.0148207
0.0157244
0.016251
0.016239
0.0158287
0.015348
0.0150753
0.0152832
0.0159924
0.0170953
0.0183394
0.0194685
0.0202236
0.0202628
0.0193911
0.0174323
0.0144659
0.0107837
0.00693372
0.00379848
0.00227342
0.0031066
0.00670533
0.0130312
0.0215263
0.0313347
0.0413927
0.0508109
0.0590227
0.0658441
0.0715041
0.0765362
0.0815849
0.0870714
0.0931025
0.0992822
0.104911
0.109158
0.111205
0.110677
0.107689
0.102733
0.0966755
0.0905161
0.0852822
0.0819305
0.0811576
0.0832556
0.0878863
0.0939493
0.0997098
0.103118
0.10248
0.0968182
0.0861796
0.0717001
0.0552031
0.0385732
0.0233823
0.0105407
0.000314194
-0.00746157
-0.0132727
-0.0176412
-0.0210002
-0.0236594
-0.0258867
-0.0278281
-0.0297526
-0.0318167
-0.0341769
-0.0368731
-0.0397252
-0.042414
-0.0446111
-0.0459955
-0.0463811
-0.045721
-0.0442669
-0.0424252
-0.0406159
-0.0396099
-0.0405508
-0.0448673
-0.0542015
-0.0699329
-0.0928396
-0.122248
-0.155377
-0.186798
-0.208463
-0.210154
-0.180515
-0.109004
0.0113875
0.180574
0.388469
0.613401
0.823774
0.983312
1.05969
1.03374
0.906313
0.699534
0.451658
0.206731
0.00247806
-0.138665
-0.21279
-0.231842
-0.216275
-0.187063
-0.159501
-0.141032
-0.132291
-0.130329
-0.131416
-0.132747
-0.133115
-0.132374
-0.130959
-0.129381
-0.128075
-0.127369
-0.127478
-0.128375
-0.129748
-0.131011
-0.131476
-0.130619
-0.12826
-0.124601
-0.120127
-0.115391
-0.110993
-0.107266
-0.104411
-0.102537
-0.101508
-0.101171
-0.101354
-0.101742
-0.101958
-0.101782
-0.100882
-0.0992173
-0.0969175
-0.0941764
-0.0913317
-0.0886479
-0.0863112
-0.0844225
-0.0829368
-0.0817424
-0.0807
-0.0796988
-0.0786092
-0.0773838
-0.0760176
-0.0746913
-0.0736375
-0.073165
-0.0734656
-0.0745242
-0.0761428
-0.0778666
-0.0790616
-0.0792909
-0.0782782
-0.0760287
-0.0729496
-0.0695486
-0.0663328
-0.0637478
-0.0619958
-0.06107
-0.060853
-0.0611656
-0.0619015
-0.0630307
-0.064612
-0.0667003
-0.0693484
-0.0725335
-0.0762303
-0.0803365
-0.0847156
-0.0891332
-0.0933818
-0.0970574
-0.0996852
-0.100646
-0.0993001
-0.0951112
-0.0878356
-0.077566
-0.0648046
-0.0503319
-0.035017
-0.0197212
-0.00503134
0.00871613
0.0213033
0.0327321
0.0430359
0.0522125
0.060287
0.0673382
0.0734401
0.0787108
0.0832792
0.0873138
0.0909456
0.0942115
0.0971109
0.099566
0.101551
0.10308
0.104229
0.105156
0.105985
0.106736
0.107381
0.107783
0.107821
0.107398
0.10655
0.105399
0.104231
0.103142
0.102161
0.101215
0.100072
0.0985371
0.096547
0.0941668
0.0915685
0.0889877
0.0865605
0.0843057
0.082181
0.0799855
0.0776034
0.0750632
0.0724718
0.0699906
0.0678662
0.0662956
0.0653304
0.0649385
0.0647886
0.064535
0.0637198
0.0620842
0.0594712
0.0560954
0.0523559
0.0486545
0.0454917
0.0430127
0.0412242
0.0398621
0.0385089
0.0368003
0.0344958
0.0316364
0.0284732
0.0254261
0.0229893
0.0214477
0.0209291
0.0213044
0.0221535
0.0230544
0.0236291
0.0236425
0.0230105
0.0218452
0.0202904
0.0184558
0.0165044
0.0145187
0.0126321
0.0109764
0.00962778
0.00864252
0.00787005
0.00710505
0.00616489
0.00491722
0.00354205
0.00236115
0.00175543
0.00208629
0.0034247
0.00553252
0.0078179
0.00964302
0.0105255
0.0102895
0.00920847
0.00782572
0.00686454
0.0069161
0.00842262
0.0116264
0.0165869
0.0231776
0.0310715
0.0397085
0.0483263
0.0561297
0.0626373
0.0677551
0.0719687
0.0761009
0.0809459
0.086837
0.0936024
0.100445
0.106352
0.110441
0.112139
0.111388
0.108547
0.104226
0.0990301
0.0934605
0.0878448
0.0824034
0.0774769
0.0734832
0.0709556
0.0704863
0.0721855
0.0755836
0.0793693
0.0817096
0.0806211
0.0747287
0.0636312
0.0481725
0.0301201
0.0117101
-0.00511192
-0.0190225
-0.0295578
-0.0369286
-0.0416225
-0.0442414
-0.0452993
-0.0452203
-0.044407
-0.0433184
-0.0424242
-0.0421431
-0.0428413
-0.0445692
-0.0471696
-0.0503115
-0.0534412
-0.0559821
-0.0573697
-0.0572978
-0.0558632
-0.0535602
-0.051335
-0.0504714
-0.0525556
-0.0591668
-0.0717046
-0.0909618
-0.116917
-0.148318
-0.18226
-0.213686
-0.23563
-0.239485
-0.215538
-0.154195
-0.0480195
0.105475
0.300819
0.522055
0.742692
0.928865
1.04608
1.06835
0.986396
0.812083
0.576627
0.322479
0.0918082
-0.0843733
-0.192702
-0.237742
-0.236654
-0.21127
-0.180605
-0.156423
-0.142691
-0.138076
-0.138826
-0.141328
-0.143449
-0.144383
-0.144297
-0.143527
-0.142423
-0.141265
-0.140262
-0.139656
-0.139477
-0.139659
-0.139962
-0.140028
-0.13965
-0.138832
-0.137735
-0.136621
-0.135668
-0.134885
-0.133966
-0.132574
-0.130359
-0.127164
-0.123138
-0.118591
-0.113993
-0.109867
-0.106559
-0.104342
-0.103083
-0.102514
-0.102104
-0.101255
-0.0996345
-0.0971666
-0.0941767
-0.091249
-0.0890564
-0.0880917
-0.0884495
-0.0898227
-0.0915735
-0.0930885
-0.0939619
-0.0939893
-0.0933289
-0.0922722
-0.0910632
-0.089919
-0.0888975
-0.0880574
-0.0873483
-0.0866563
-0.0857878
-0.0844379
-0.082381
-0.0794386
-0.0757141
-0.071636
-0.0677572
-0.0645511
-0.0623499
-0.0612416
-0.0611646
-0.0620094
-0.0636601
-0.0660384
-0.0690534
-0.0725346
-0.0760775
-0.0793269
-0.0819966
-0.08378
-0.0845121
-0.0841197
-0.082465
-0.0792982
-0.0744037
-0.0676091
-0.0589874
-0.0490331
-0.0384405
-0.0281655
-0.0191008
-0.0117839
-0.00624108
-0.00205351
0.00150894
0.00525001
0.00983577
0.0156042
0.0224629
0.0301198
0.0381411
0.0461377
0.0537509
0.0607209
0.0670582
0.0727076
0.0776575
0.0819129
0.0854269
0.0880984
0.0899162
0.0909578
0.0914343
0.0917516
0.092232
0.0932689
0.094874
0.0968089
0.0986159
0.0997005
0.0996197
0.0981229
0.0952819
0.0913868
0.0869446
0.082484
0.0784933
0.0752728
0.0729371
0.0715112
0.0707356
0.0704394
0.0702688
0.0699931
0.0693889
0.0683533
0.0668205
0.0647549
0.0621636
0.0590527
0.0555421
0.051654
0.0476011
0.0435747
0.0398228
0.0365421
0.0337982
0.0315601
0.0295423
0.0275295
0.0254088
0.0232131
0.0211302
0.0193497
0.0179522
0.016771
0.0155451
0.0139271
0.0118646
0.00949779
0.00721959
0.00549534
0.00465765
0.00487148
0.00598741
0.00768821
0.00959622
0.0113931
0.0127864
0.0136274
0.0137261
0.012963
0.0113081
0.00876043
0.00558005
0.00213763
-0.00110241
-0.00367057
-0.00526944
-0.00579652
-0.0054594
-0.00474697
-0.0042378
-0.00444576
-0.00567523
-0.00795582
-0.0108985
-0.0139342
-0.0164037
-0.0178586
-0.0181152
-0.0172797
-0.0157052
-0.0138069
-0.0118765
-0.0101096
-0.00856385
-0.00719582
-0.00594209
-0.00476692
-0.00355842
-0.00210955
-0.000102687
0.00283935
0.00712625
0.0129686
0.0202461
0.0285947
0.0372341
0.0452726
0.0519383
0.0569417
0.0603362
0.0627107
0.0648997
0.0675732
0.0710746
0.0753117
0.0796795
0.0834296
0.0859613
0.0869027
0.0862676
0.0843282
0.0814571
0.0781401
0.0748614
0.0721837
0.0706521
0.0706034
0.0718027
0.0732995
0.0736347
0.0710998
0.0644843
0.0535059
0.0389969
0.0226112
0.00637229
-0.00812724
-0.020161
-0.029807
-0.0376705
-0.0443885
-0.0501507
-0.0547346
-0.0577102
-0.0586927
-0.0577486
-0.0553364
-0.0524009
-0.0499095
-0.0484971
-0.0483438
-0.0492091
-0.0505846
-0.0520447
-0.0533149
-0.05447
-0.055768
-0.0575292
-0.0599508
-0.0629205
-0.0659686
-0.0683529
-0.0694735
-0.0689612
-0.0670473
-0.0647276
-0.0637717
-0.0663728
-0.0747104
-0.090482
-0.114234
-0.144984
-0.179869
-0.213701
-0.239452
-0.248773
-0.23263
-0.182214
-0.090859
0.043945
0.218057
0.418672
0.623793
0.804375
0.929455
0.973608
0.924391
0.787182
0.585301
0.354275
0.132639
-0.0480773
-0.170373
-0.232824
-0.24709
-0.23147
-0.204225
-0.178415
-0.160269
-0.150438
-0.14641
-0.144915
-0.143483
-0.141096
-0.13783
-0.134354
-0.131477
-0.129918
-0.130039
-0.131766
-0.134552
-0.137615
-0.140027
-0.141102
-0.140523
-0.138312
-0.134935
-0.130955
-0.126995
-0.123643
-0.121268
-0.120029
-0.119786
-0.120051
-0.120152
-0.11946
-0.117527
-0.114135
-0.109408
-0.103711
-0.0974345
-0.0909674
-0.0847647
-0.0793778
-0.0753792
-0.0734312
-0.0739534
-0.0769647
-0.0820329
-0.0882339
-0.094344
-0.0992614
-0.102175
-0.102799
-0.101348
-0.098331
-0.0944585
-0.0904679
-0.0868853
-0.0841287
-0.0824178
-0.0817076
-0.0817745
-0.0822897
-0.0828883
-0.0831106
-0.0826589
-0.0813713
-0.0792853
-0.0765855
-0.0736102
-0.0707648
-0.06845
-0.066973
-0.0664499
-0.0669291
-0.0683773
-0.0707926
-0.0741261
-0.0783468
-0.0833767
-0.0890243
-0.0949762
-0.100698
-0.105556
-0.108798
-0.109716
-0.10779
-0.102736
-0.0946855
-0.0841139
-0.0718815
-0.0590622
-0.0467145
-0.0357884
-0.0268303
-0.0200578
-0.0151471
-0.0114204
-0.00802758
-0.00416814
0.000683038
0.00660194
0.0134893
0.0209777
0.0286429
0.0361996
0.0433592
0.0499252
0.0557041
0.0605155
0.0642382
0.0668724
0.0686506
0.0698677
0.0709523
0.0722195
0.0737974
0.075613
0.0775081
0.079309
0.0808705
0.0821986
0.0832476
0.0839583
0.0840907
0.083362
0.0816032
0.0789776
0.0758014
0.072656
0.0700486
0.0681534
0.0667746
0.0654635
0.0637967
0.0615668
0.0589132
0.0563169
0.0542061
0.0528573
0.0521569
0.0517565
0.0511971
0.050174
0.048532
0.0464436
0.0441579
0.0419016
0.0397993
0.0378
0.0359124
0.0341291
0.0325838
0.0313116
0.0303615
0.0295103
0.0284661
0.0269108
0.0246356
0.0216379
0.0180823
0.0142957
0.0106399
0.00724907
0.00413937
0.00126681
-0.00137224
-0.00370053
-0.0055229
-0.00660304
-0.00670924
-0.00591512
-0.00440405
-0.00258947
-0.000953633
5.17171e-5
0.000155206
-0.000651139
-0.00223382
-0.00425759
-0.00634934
-0.00812788
-0.00937302
-0.0100856
-0.0105239
-0.0110685
-0.0120933
-0.0139389
-0.016741
-0.0202613
-0.0240869
-0.0276891
-0.0305901
-0.032475
-0.0333202
-0.0333545
-0.0329427
-0.0323684
-0.0317092
-0.0308325
-0.0293135
-0.0266983
-0.0225782
-0.0167968
-0.00948832
-0.00114765
0.00748552
0.0156074
0.0225876
0.0280233
0.0320865
0.0352424
0.0381399
0.0414385
0.0454958
0.0501493
0.0550485
0.0597249
0.0638189
0.0671597
0.0696708
0.0713952
0.0723156
0.0724537
0.0718886
0.0707743
0.0692037
0.0672901
0.0649835
0.0621662
0.0588674
0.055543
0.0529934
0.0522357
0.0537829
0.0573005
0.0612168
0.0632081
0.0607618
0.0521847
0.0372144
0.0173237
-0.00477561
-0.0259291
-0.0434641
-0.0558523
-0.0628129
-0.0651977
-0.0646303
-0.0627059
-0.0608602
-0.0598814
-0.059982
-0.0610441
-0.0627508
-0.064735
-0.0666855
-0.0683552
-0.0693543
-0.069386
-0.0682438
-0.0658849
-0.0625697
-0.0588546
-0.0552909
-0.0522149
-0.0496828
-0.0475056
-0.0456092
-0.0442082
-0.0439315
-0.0457519
-0.0507253
-0.059849
-0.0736618
-0.0923733
-0.115652
-0.142653
-0.171596
-0.199163
-0.220461
-0.228867
-0.216263
-0.173657
-0.0929566
0.0307315
0.196114
0.392979
0.600811
0.790485
0.929345
0.988984
0.953704
0.826178
0.628278
0.395702
0.168367
-0.0200277
-0.149943
-0.218476
-0.236501
-0.222415
-0.194912
-0.167936
-0.148604
-0.138451
-0.135434
-0.136441
-0.138785
-0.140912
-0.142082
-0.142202
-0.141321
-0.139786
-0.138004
-0.136305
-0.134936
-0.13395
-0.13315
-0.13221
-0.130841
-0.128762
-0.125941
-0.122556
-0.118938
-0.115513
-0.112739
-0.110837
-0.10988
-0.10955
-0.109409
-0.108821
-0.107338
-0.104844
-0.101596
-0.0981813
-0.0953634
-0.093617
-0.0932259
-0.0940149
-0.095474
-0.0970878
-0.0984149
-0.0992483
-0.0995918
-0.0995435
-0.0990987
-0.0982982
-0.0969452
-0.094933
-0.0923391
-0.0894241
-0.0865434
-0.0841911
-0.0826594
-0.0820288
-0.0820926
-0.0824779
-0.0827652
-0.082664
-0.0820022
-0.0808523
-0.0793986
-0.0778878
-0.0764942
-0.0753461
-0.0745035
-0.0740253
-0.0739769
-0.0744248
-0.0754837
-0.0771212
-0.0792952
-0.081821
-0.0845556
-0.0874589
-0.090485
-0.0936588
-0.0969632
-0.100184
-0.10295
-0.104791
-0.10522
-0.103844
-0.100464
-0.0949656
-0.0875172
-0.078475
-0.0683936
-0.058007
-0.0481366
-0.0395748
-0.0329663
-0.0285215
-0.0261043
-0.0252163
-0.0250718
-0.0248574
-0.0238532
-0.0214662
-0.0174197
-0.0115631
-0.00395554
0.00535
0.0161009
0.0280391
0.0407365
0.0536513
0.0661724
0.0777249
0.0879261
0.0964965
0.103247
0.108257
0.111678
0.113718
0.114668
0.114846
0.114599
0.114139
0.11359
0.112959
0.112178
0.111165
0.109952
0.108555
0.107115
0.105767
0.104622
0.103681
0.102934
0.102319
0.101826
0.101454
0.101189
0.100991
0.100731
0.100239
0.0994012
0.0980597
0.0961839
0.0938335
0.0910725
0.088005
0.0847665
0.0814707
0.0782564
0.0753166
0.0727309
0.070508
0.0685759
0.0668688
0.0652162
0.0635943
0.0619336
0.0601594
0.05825
0.0560935
0.0536293
0.0508434
0.0478831
0.045034
0.0426135
0.0408352
0.0397917
0.0393474
0.0392687
0.0391728
0.0388624
0.0382433
0.0373639
0.036362
0.0352835
0.0339833
0.0322893
0.029978
0.0269665
0.0233238
0.0194614
0.0157785
0.0127106
0.0105458
0.00925945
0.00870914
0.00864991
0.00882108
0.00916183
0.00969333
0.0103786
0.0111691
0.0117935
0.0119297
0.0112744
0.00980586
0.00772171
0.0054545
0.00345286
0.00198338
0.00109308
0.000571799
-9.71916e-6
-0.000913876
-0.00225208
-0.00394855
-0.00578789
-0.00747669
-0.00886451
-0.00991649
-0.0106246
-0.0110232
-0.0111029
-0.0106272
-0.00933982
-0.00697301
-0.00327323
0.00185708
0.00837444
0.016031
0.0244487
0.0331888
0.0418046
0.049965
0.0576282
0.064954
0.0721151
0.0793376
0.0865501
0.0932265
0.0986085
0.101876
0.102396
0.100027
0.0951896
0.0886801
0.0815366
0.0747635
0.0690725
0.064948
0.0626905
0.062486
0.064246
0.0673898
0.0707576
0.0728502
0.0720398
0.0670577
0.057531
0.044131
0.028325
0.0120519
-0.00284848
-0.0152269
-0.0245864
-0.0310394
-0.0351189
-0.0373634
-0.0383668
-0.0387815
-0.0390596
-0.0396086
-0.0408016
-0.0428611
-0.04574
-0.0491595
-0.0524925
-0.0551427
-0.0565603
-0.056466
-0.0548892
-0.0523136
-0.0493802
-0.0466021
-0.0444068
-0.0428925
-0.0419922
-0.0416872
-0.0420788
-0.0437431
-0.0476575
-0.0551814
-0.0677658
-0.0866125
-0.112199
-0.143663
-0.178348
-0.211258
-0.23522
-0.241266
-0.219308
-0.159363
-0.0538702
0.099645
0.295368
0.516926
0.737293
0.922305
1.0375
1.05724
0.973039
0.797572
0.562587
0.31064
0.083485
-0.0886523
-0.193363
-0.235946
-0.233859
-0.208787
-0.179121
-0.155936
-0.142684
-0.137782
-0.137604
-0.138978
-0.14009
-0.140572
-0.140758
-0.141092
-0.141797
-0.142896
-0.144291
-0.145794
-0.147045
-0.147683
-0.147285
-0.145659
-0.14297
-0.139651
-0.136271
-0.133305
-0.131049
-0.129361
-0.127928
-0.126297
-0.12427
-0.121781
-0.119012
-0.116187
-0.113544
-0.11104
-0.108568
-0.105898
-0.102847
-0.0993756
-0.0956407
-0.0919517
-0.0886971
-0.0862165
-0.0847898
-0.084337
-0.0846791
-0.0854734
-0.0862211
-0.0866258
-0.0865151
-0.0859697
-0.0851262
-0.0841843
-0.0832865
-0.0825441
-0.0818228
-0.0809926
-0.0799235
-0.0785222
-0.0767704
-0.0747279
-0.0724657
-0.0700781
-0.0677036
-0.0654555
-0.063523
-0.0619838
-0.0609286
-0.0603346
-0.0600838
-0.0600468
-0.0601622
-0.0604792
-0.0612522
-0.0627268
-0.0651692
-0.0685976
-0.0728476
-0.0775781
-0.0822206
-0.086286
-0.0892651
-0.0908483
-0.0907407
-0.0887587
-0.0847121
-0.0784747
-0.0700987
-0.0599533
-0.0487173
-0.0373785
-0.0270233
-0.018523
-0.0122601
-0.00805022
-0.00510333
-0.0024548
0.000950275
0.00574708
0.012071
0.0196755
0.0280913
0.0367419
0.0452318
0.0533929
0.0610916
0.068412
0.0752253
0.0814776
0.0869593
0.0915781
0.0952569
0.0980355
0.100009
0.101334
0.102173
0.102578
0.102749
0.102714
0.10257
0.102293
0.101794
0.10103
0.0998167
0.0980944
0.0958974
0.0933541
0.090667
0.0880369
0.0855665
0.0832511
0.0810228
0.0788018
0.0766385
0.0746497
0.0729852
0.0716955
0.070704
0.0697673
0.0686586
0.0671336
0.065045
0.062352
0.0589994
0.0549921
0.0503741
0.0453332
0.0401887
0.0353799
0.0313151
0.0282512
0.0261777
0.0247708
0.02357
0.0221671
0.0203272
0.018015
0.0154256
0.012848
0.0105063
0.0085886
0.00719791
0.00634216
0.00601968
0.00619984
0.00670839
0.00736554
0.00781939
0.00770058
0.00674433
0.00492348
0.0024095
-0.000394049
-0.00296429
-0.00498688
-0.00629118
-0.00706485
-0.00770303
-0.00856592
-0.00995613
-0.01189
-0.0141497
-0.0163521
-0.0181928
-0.0195617
-0.0204709
-0.0211484
-0.0217747
-0.0224067
-0.0229854
-0.0232215
-0.0228145
-0.0215979
-0.0195338
-0.0168984
-0.0141503
-0.0119779
-0.0109362
-0.011393
-0.0131446
-0.0154528
-0.0171812
-0.0170131
-0.0139368
-0.00757481
0.00170062
0.0127901
0.0242801
0.0348108
0.0434798
0.0501088
0.0550787
0.0592346
0.0634326
0.0683816
0.0744536
0.0814546
0.0888528
0.0958531
0.101502
0.105122
0.106104
0.104351
0.10007
0.0938548
0.0863737
0.0785168
0.0711649
0.0652388
0.0615656
0.060615
0.0621699
0.0652028
0.0680012
0.0684991
0.0650702
0.0569216
0.0445058
0.029212
0.0130352
-0.0021498
-0.0150177
-0.0250034
-0.0322635
-0.0373074
-0.0408281
-0.0435461
-0.0458496
-0.048047
-0.0501356
-0.0520625
-0.0536166
-0.0546942
-0.0552888
-0.0555066
-0.0555084
-0.0554355
-0.0553603
-0.0552971
-0.0552795
-0.0555919
-0.0568584
-0.0602101
-0.0673025
-0.0798361
-0.0991053
-0.12524
-0.156602
-0.189519
-0.218734
-0.23819
-0.242231
-0.226252
-0.186408
-0.118961
-0.0201879
0.112556
0.27789
0.466928
0.660735
0.830956
0.945122
0.975514
0.908876
0.752548
0.534054
0.294055
0.0743311
-0.0934739
-0.195257
-0.235167
-0.230346
-0.202661
-0.171068
-0.147182
-0.134623
-0.131744
-0.134612
-0.139433
-0.143793
-0.146632
-0.147724
-0.147279
-0.145603
-0.143287
-0.140925
-0.139091
-0.138074
-0.137691
-0.137523
-0.136947
-0.135476
-0.132988
-0.129568
-0.125637
-0.121675
-0.118092
-0.115086
-0.112714
-0.110815
-0.109233
-0.107825
-0.106491
-0.105313
-0.104337
-0.103675
-0.103221
-0.102885
-0.10246
-0.101844
-0.100951
-0.0998901
-0.0986963
-0.0973642
-0.0959022
-0.0941571
-0.092066
-0.0895723
-0.0868013
-0.0838846
-0.08104
-0.0783703
-0.0759876
-0.0738826
-0.0720229
-0.0704424
-0.0690883
-0.0680166
-0.0673269
-0.0670581
-0.0673599
-0.0682343
-0.0696417
-0.0714161
-0.073288
-0.0748046
-0.0756673
-0.075679
-0.0750018
-0.0740789
-0.0734273
-0.0734889
-0.0744228
-0.0760844
-0.0780646
-0.0799192
-0.0812422
-0.081912
-0.0818698
-0.0812471
-0.0800763
-0.0782977
-0.0758399
-0.0724697
-0.0679504
-0.0621258
-0.0549247
-0.0465134
-0.0373607
-0.028085
-0.0193183
-0.0116719
-0.00531472
-0.000147118
0.00425222
0.00848057
0.0131325
0.018575
0.0250065
0.0323317
0.0403701
0.0487397
0.0570012
0.0646889
0.0713631
0.0767894
0.0809137
0.083863
0.0859824
0.0875819
0.0888922
0.0900187
0.090919
0.0914529
0.0915789
0.0912642
0.0906311
0.089767
0.0887869
0.087677
0.086281
0.0843421
0.0815842
0.0778301
0.0731863
0.0680403
0.0630145
0.058862
0.0561314
0.0550285
0.0553633
0.0566236
0.0581676
0.0594459
0.0601044
0.060006
0.0591019
0.0574256
0.0549927
0.0519488
0.0484124
0.0446308
0.0407492
0.0369642
0.0332517
0.0294853
0.0255204
0.0213237
0.0169877
0.0127798
0.00899103
0.00584258
0.00339926
0.00151565
1.80766e-5
-0.00125642
-0.00232505
-0.00317419
-0.00372079
-0.00400305
-0.00413483
-0.00431015
-0.00465668
-0.00523994
-0.00604203
-0.00710102
-0.00840138
-0.0100485
-0.0119964
-0.0141363
-0.0162723
-0.0181291
-0.019476
-0.0202441
-0.0205474
-0.0206748
-0.0208708
-0.0213018
-0.0220251
-0.0229617
-0.0240339
-0.0251959
-0.0264836
-0.0278497
-0.0292796
-0.0304352
-0.0309925
-0.0305966
-0.0290866
-0.0267375
-0.0240868
-0.0216847
-0.0200315
-0.0191082
-0.0184687
-0.0173944
-0.0151281
-0.0113202
-0.00603502
0.00023961
0.00689759
0.013655
0.0205026
0.0278455
0.036049
0.0451638
0.0546308
0.0632997
0.0699077
0.0734644
0.0738751
0.0717829
0.068478
0.065142
0.0624709
0.0605512
0.0590714
0.0576934
0.0565971
0.0563989
0.0577387
0.0609121
0.0652709
0.069355
0.0712288
0.0692125
0.0624058
0.0509346
0.0358799
0.0188298
0.00155543
-0.0144671
-0.0282185
-0.0390236
-0.0466767
-0.051252
-0.0531369
-0.0530203
-0.051787
-0.0503325
-0.0495527
-0.0500386
-0.0520131
-0.0553219
-0.0594436
-0.0636617
-0.067181
-0.0695032
-0.0703878
-0.0699969
-0.0686628
-0.0668936
-0.0652621
-0.0645186
-0.0658172
-0.0706243
-0.0805447
-0.0969705
-0.120565
-0.150592
-0.184182
-0.216168
-0.238969
-0.242844
-0.216599
-0.149675
-0.0349864
0.127296
0.326335
0.539364
0.733729
0.87344
0.928418
0.883686
0.745121
0.539063
0.30533
0.0859315
-0.0862638
-0.195099
-0.24219
-0.242576
-0.216987
-0.184317
-0.156832
-0.139285
-0.131032
-0.128929
-0.129863
-0.13182
-0.134106
-0.136485
-0.138699
-0.140363
-0.141032
-0.140587
-0.139216
-0.137455
-0.136005
-0.135263
-0.135217
-0.135518
-0.135654
-0.135101
-0.133741
-0.131692
-0.129231
-0.126612
-0.124014
-0.12148
-0.119024
-0.116706
-0.114758
-0.113449
-0.112957
-0.113208
-0.113734
-0.113929
-0.113212
-0.111101
-0.107563
-0.102855
-0.0975309
-0.0922296
-0.0875319
-0.0838877
-0.0816724
-0.0810147
-0.0819769
-0.0844843
-0.0881907
-0.0924291
-0.0964229
-0.0993234
-0.10047
-0.0994772
-0.0964577
-0.0919241
-0.0866004
-0.0812239
-0.0763868
-0.0723961
-0.069439
-0.0675162
-0.0665552
-0.0665888
-0.0675271
-0.0692136
-0.0714123
-0.0738936
-0.0762865
-0.0783192
-0.0798035
-0.0807121
-0.0811835
-0.0814987
-0.0819772
-0.0830617
-0.085007
-0.0878568
-0.0913623
-0.0950669
-0.0982717
-0.100233
-0.100175
-0.0974208
-0.0915033
-0.0822666
-0.0699696
-0.0554108
-0.0398423
-0.0246145
-0.0109571
0.000418662
0.00950377
0.0169375
0.0235227
0.0301234
0.0372005
0.0447414
0.0523688
0.0595975
0.0660218
0.0716166
0.0766494
0.0815456
0.0866754
0.0921157
0.097564
0.102534
0.106437
0.108814
0.109544
0.108751
0.106769
0.104079
0.101048
0.0978985
0.0947926
0.091708
0.0886358
0.0854915
0.0823819
0.079349
0.0765435
0.0741294
0.0722632
0.0709574
0.0701499
0.0696258
0.0691401
0.0684292
0.0672666
0.0655657
0.0633279
0.0605402
0.0572659
0.053609
0.0497341
0.0459496
0.0426197
0.0399343
0.0379067
0.0362462
0.0344803
0.0322195
0.0293328
0.0261305
0.0231991
0.0211187
0.0202725
0.0205177
0.0213112
0.0219414
0.0218349
0.0207287
0.0187588
0.0164292
0.0143884
0.0130939
0.0127566
0.013241
0.0140887
0.014673
0.014397
0.0128548
0.00995449
0.00597771
0.00132812
-0.00338664
-0.00761757
-0.0109269
-0.0130804
-0.0139928
-0.0137562
-0.0125328
-0.010651
-0.00839992
-0.0061535
-0.00412848
-0.00246836
-0.00104661
0.00044827
0.0023087
0.0045912
0.00707053
0.00914179
0.0100891
0.00937458
0.00690921
0.00324191
-0.00049616
-0.00309381
-0.00361297
-0.00160947
0.00273475
0.00884311
0.0160625
0.0238013
0.0317475
0.0397262
0.0476861
0.055523
0.0630806
0.0700343
0.0760158
0.0807177
0.0838728
0.0854103
0.0854653
0.0843892
0.0827038
0.0809382
0.0793538
0.0779688
0.0766064
0.0750663
0.0730894
0.0703984
0.066624
0.0613772
0.0541698
0.0447361
0.0331447
0.0200151
0.00627932
-0.00680817
-0.0181748
-0.0270599
-0.0331351
-0.0364745
-0.0374434
-0.036773
-0.0353575
-0.034235
-0.0341313
-0.0352715
-0.037305
-0.039429
-0.0407674
-0.0407387
-0.0392887
-0.0369489
-0.0345999
-0.0330708
-0.0329267
-0.0343598
-0.0371021
-0.0408135
-0.0450483
-0.0493912
-0.0534283
-0.0572492
-0.0613935
-0.0671695
-0.0765482
-0.0913698
-0.112747
-0.139838
-0.169308
-0.195647
-0.212419
-0.213701
-0.195504
-0.155892
-0.093616
-0.00693194
0.106676
0.248919
0.417412
0.601687
0.781272
0.927513
1.00996
1.00562
0.907402
0.728087
0.498068
0.257249
0.0438197
-0.115506
-0.210716
-0.248035
-0.24431
-0.21973
-0.191247
-0.168989
-0.15603
-0.150762
-0.149435
-0.148594
-0.146454
-0.143075
-0.13954
-0.137218
-0.13698
-0.138827
-0.142052
-0.145411
-0.147805
-0.148595
-0.147714
-0.145464
-0.142412
-0.139045
-0.135739
-0.13277
-0.130484
-0.129083
-0.128894
-0.13001
-0.132286
-0.135263
-0.138245
-0.140289
-0.140597
-0.138591
-0.134154
-0.127841
-0.120823
-0.114398
-0.109726
-0.107217
-0.106431
-0.106367
-0.105959
-0.104745
-0.103252
-0.102768
-0.104556
-0.10923
-0.116191
-0.123646
-0.129246
-0.131009
-0.127831
-0.119989
-0.108885
-0.0964913
-0.0848192
-0.0753649
-0.0689363
-0.0657109
-0.0653756
-0.0673334
-0.0708295
-0.0751395
-0.0798022
-0.0844592
-0.0887677
-0.0922603
-0.0944074
-0.0947128
-0.0930893
-0.0900231
-0.086536
-0.0840706
-0.0840521
-0.0874814
-0.0946333
-0.105013
-0.117424
-0.130155
-0.141387
-0.149397
-0.152802
-0.150897
-0.143704
-0.131936
-0.116934
-0.100045
-0.0824165
-0.0650324
-0.0483699
-0.0328072
-0.0186152
-0.00596813
0.00522591
0.0152443
0.0248035
0.034751
0.045802
0.058135
0.0712143
0.0839979
0.0953816
0.104619
0.111514
0.116328
0.119635
0.121978
0.123723
0.125232
0.126954
0.129525
0.133639
0.139716
0.14744
0.155706
0.1627
0.16642
0.165251
0.158608
0.14707
0.132407
0.117118
0.103831
0.094506
0.0901698
0.0908171
0.0955728
0.103181
0.112359
0.122086
0.13154
0.139798
0.145744
0.148068
0.145519
0.137412
0.124132
0.107243
0.0891251
0.0722698
0.0588441
0.0498149
0.0450586
0.0437471
0.0447429
0.0472838
0.0511737
0.0565739
0.0635674
0.0716058
0.0793729
0.0849204
0.0863685
0.0826665
0.0741797
0.0625031
0.0500508
0.0391418
0.0312364
0.0266165
0.0246495
0.0243983
0.025111
0.0264521
0.0284549
0.0312096
0.0343623
0.0373607
0.0394437
0.0400224
0.0387744
0.0356499
0.0307689
0.0244495
0.0171991
0.00985106
0.00349343
-0.000747542
-0.00191445
0.00018116
0.00495131
0.0111341
0.0170512
0.0212347
0.0224528
0.020065
0.0140426
0.00500579
-0.00562646
-0.0155813
-0.0224638
-0.0242423
-0.0201327
-0.0109244
0.00104271
0.0127178
0.0216012
0.0267358
0.0290914
0.0308318
0.0343862
0.0411507
0.0509415
0.0624656
0.0738819
0.0838995
0.0919539
0.0981791
0.10299
0.106419
0.108117
0.107517
0.104351
0.0990934
0.0927893
0.0865767
0.081285
0.0771375
0.0738283
0.0709426
0.0684802
0.066971
0.0671629
0.0694227
0.0732145
0.077028
0.0785027
0.0754625
0.0666434
0.0523236
0.0342903
0.0152638
-0.00196954
-0.0153869
-0.0242927
-0.0291568
-0.0312084
-0.0318884
-0.0322575
-0.0328957
-0.0338263
-0.0349416
-0.0360243
-0.0370571
-0.0380731
-0.0392364
-0.0405492
-0.0420344
-0.043565
-0.0449354
-0.0458593
-0.0460112
-0.0451834
-0.0436236
-0.0421852
-0.0422953
-0.0455051
-0.052762
-0.0639412
-0.0777552
-0.0924008
-0.106581
-0.120232
-0.134525
-0.150937
-0.1693
-0.186453
-0.195455
-0.186147
-0.146463
-0.0654134
0.0636668
0.239629
0.450945
0.674438
0.877271
1.02286
1.07967
1.03095
0.881111
0.656351
0.39826
0.152392
-0.044367
-0.172553
-0.23245
-0.239714
-0.217042
-0.18554
-0.159086
-0.142921
-0.136206
-0.135383
-0.136984
-0.13891
-0.140551
-0.142015
-0.143171
-0.143594
-0.142844
-0.140823
-0.13783
-0.134571
-0.13174
-0.12993
-0.12929
-0.129542
-0.130306
-0.131061
-0.131426
-0.131144
-0.130059
-0.128107
-0.125401
-0.122213
-0.118943
-0.116174
-0.114366
-0.113734
-0.114007
-0.114548
-0.114597
-0.113472
-0.110926
-0.107282
-0.103271
-0.099646
-0.0970866
-0.0957922
-0.0956295
-0.096179
-0.0970898
-0.0981624
-0.0992019
-0.100205
-0.100915
-0.101046
-0.100266
-0.098533
-0.0961022
-0.0935873
-0.0918028
-0.091385
-0.0924731
-0.0947495
-0.0975924
-0.100101
-0.101702
-0.102087
-0.101463
-0.100355
-0.099491
-0.0997241
-0.101543
-0.105165
-0.110233
-0.116132
-0.122024
-0.127257
-0.131556
-0.135165
-0.138781
-0.143032
-0.14839
-0.154715
-0.161271
-0.166907
-0.170212
-0.170068
-0.165811
-0.157293
-0.144821
-0.129288
-0.111656
-0.0929721
-0.0741265
-0.055691
-0.0378798
-0.0206982
-0.00403408
0.0120907
0.0274947
0.0419516
0.0552508
0.0674152
0.0786965
0.0895499
0.100421
0.111344
0.122052
0.131904
0.140129
0.146085
0.149298
0.149752
0.147914
0.144502
0.14049
0.136826
0.134163
0.132746
0.132349
0.13236
0.13196
0.130551
0.127728
0.12358
0.118399
0.112713
0.107147
0.102432
0.0991702
0.0978724
0.0987006
0.101503
0.105687
0.110399
0.114692
0.117706
0.119006
0.118581
0.116514
0.113135
0.10866
0.10331
0.0972957
0.0909038
0.0845481
0.0786721
0.0737127
0.0699125
0.0673228
0.0656977
0.0645571
0.0633923
0.0616877
0.059092
0.0556108
0.0514652
0.0471345
0.0431212
0.0398975
0.0376403
0.0363729
0.0359588
0.0361715
0.0367163
0.0373854
0.0379699
0.0382954
0.0381724
0.0374343
0.036017
0.0338974
0.0311298
0.0279253
0.0245983
0.0214543
0.018757
0.0167359
0.0153936
0.0146303
0.0141902
0.013766
0.0130865
0.0118287
0.00982661
0.00703892
0.00360932
-0.000121056
-0.00365857
-0.00648575
-0.00824771
-0.00877656
-0.00822289
-0.00700306
-0.00559177
-0.00439951
-0.00368765
-0.00348516
-0.00360697
-0.00388052
-0.00419433
-0.00451973
-0.00485529
-0.00513089
-0.00508081
-0.00417897
-0.00188557
0.00223081
0.00822507
0.0158402
0.0244321
0.0332385
0.0417386
0.0497176
0.0572971
0.0646878
0.0720891
0.0793688
0.0861274
0.0917127
0.0954879
0.0970872
0.0965602
0.0943031
0.0909157
0.087055
0.0831002
0.0791273
0.075045
0.0708852
0.0670185
0.064127
0.0631636
0.064758
0.0686892
0.0736246
0.0775356
0.0781115
0.0737238
0.0639597
0.0497
0.0328954
0.015767
0.000106345
-0.013003
-0.0231253
-0.0302614
-0.0346333
-0.0366338
-0.0368594
-0.0361621
-0.0356241
-0.0361697
-0.0382406
-0.0416757
-0.0457454
-0.0494257
-0.0518517
-0.0526208
-0.0520176
-0.0507094
-0.0493395
-0.0484128
-0.0479974
-0.0479504
-0.0481724
-0.0488187
-0.0506491
-0.0550535
-0.0636191
-0.0778836
-0.0987073
-0.125772
-0.157186
-0.188941
-0.214836
-0.22695
-0.216279
-0.173853
-0.092057
0.0338079
0.203724
0.411473
0.64347
0.878648
1.08994
1.24782
1.3256
1.30555
1.18438
0.975737
0.708405
0.42064
0.151641
-0.0669084
-0.21722
-0.297328
-0.318808
-0.301224
-0.265313
-0.227882
-0.199058
-0.182137
-0.175585
-0.175584
-0.178335
-0.18125
-0.183173
-0.184072
-0.184372
-0.184627
-0.185145
-0.185945
-0.186942
-0.187792
-0.188153
-0.187751
-0.186309
-0.183793
-0.180277
-0.176083
-0.171576
-0.167113
-0.162974
-0.159206
-0.155762
-0.152476
-0.149255
-0.146126
-0.143243
-0.140854
-0.139202
-0.138362
-0.138227
-0.138541
-0.138943
-0.139089
-0.138719
-0.137773
-0.136338
-0.134605
-0.132757
-0.130994
-0.129415
-0.12798
-0.126662
-0.125345
-0.123877
-0.122119
-0.11992
-0.11723
-0.114167
-0.11103
-0.108156
-0.105924
-0.104581
-0.104109
-0.10429
-0.104785
-0.10526
-0.105539
-0.105665
-0.105831
-0.106209
-0.106908
-0.107784
-0.108672
-0.109441
-0.110054
-0.110708
-0.11174
-0.113468
-0.116028
-0.119278
-0.122722
-0.125601
-0.127146
-0.126613
-0.12355
-0.11784
-0.109585
-0.0992413
-0.0873936
-0.074634
-0.0615883
-0.0488728
-0.037024
-0.0265704
-0.0178685
-0.0109979
-0.00568169
-0.00139676
0.00269778
0.00735895
0.0132144
0.0205861
0.029446
0.0395126
0.0503153
0.0613165
0.0719346
0.0816971
0.0901914
0.0971808
0.102535
0.106355
0.108774
0.110105
0.110484
0.110052
0.1089
0.107154
0.1049
0.10236
0.0997914
0.097425
0.0954086
0.0937777
0.0923664
0.0909872
0.0895567
0.0880559
0.0866633
0.0855171
0.0847417
0.0843204
0.0841478
0.0838524
0.0830933
0.0814572
0.0787925
0.0751368
0.0707645
0.0660008
0.0612619
0.0567891
0.0526718
0.0488099
0.045192
0.0417601
0.0386661
0.0360514
0.0340558
0.0326658
0.0316845
0.0308815
0.0299778
0.0288491
0.0273989
0.0257256
0.0239291
0.0221096
0.0203589
0.0187245
0.0171842
0.0157375
0.0143725
0.0129888
0.0114779
0.00976688
0.00773887
0.00539162
0.00270834
-0.000130448
-0.00312911
-0.00616889
-0.00917672
-0.0120284
-0.0145248
-0.0164977
-0.0177458
-0.0181862
-0.0178649
-0.0170315
-0.0159925
-0.0150997
-0.0145253
-0.0144097
-0.014719
-0.0153749
-0.0162586
-0.0173358
-0.0186261
-0.0201008
-0.0217584
-0.0236255
-0.0255404
-0.0273923
-0.0289394
-0.0300039
-0.0302177
-0.0291785
-0.0263874
-0.0214948
-0.0144694
-0.00563505
0.00419399
0.0140246
0.0228629
0.0301231
0.0358216
0.0405929
0.0452822
0.0508445
0.0576654
0.0655275
0.0734998
0.0803895
0.0849694
0.0864073
0.0845702
0.0800173
0.0736361
0.0665644
0.0597679
0.0540641
0.0500168
0.0481741
0.0487404
0.0515562
0.0558166
0.060038
0.0624272
0.0612817
0.0555292
0.0451982
0.0313475
0.0157327
0.000283605
-0.013535
-0.0249363
-0.0337731
-0.040284
-0.0449341
-0.0480537
-0.0499895
-0.0510944
-0.0518309
-0.0526255
-0.0538919
-0.0557751
-0.058188
-0.060632
-0.0626541
-0.0639156
-0.0643364
-0.0641701
-0.0637993
-0.063574
-0.0636601
-0.0638743
-0.0639184
-0.0635409
-0.0628294
-0.0625422
-0.0640534
-0.069191
-0.079731
-0.0969456
-0.120978
-0.150504
-0.18207
-0.210192
-0.227549
-0.225377
-0.19419
-0.125032
-0.0117278
0.146197
0.340488
0.552443
0.753475
0.909815
0.98998
0.973819
0.859565
0.666114
0.42874
0.189799
-0.012852
-0.155191
-0.231159
-0.250692
-0.233444
-0.200646
-0.168866
-0.146781
-0.135939
-0.133414
-0.134864
-0.136774
-0.137319
-0.136255
-0.134145
-0.131845
-0.129998
-0.129058
-0.129118
-0.13018
-0.131914
-0.133809
-0.135171
-0.135434
-0.13409
-0.131058
-0.126671
-0.121514
-0.116339
-0.11175
-0.108136
-0.105533
-0.103791
-0.102595
-0.101668
-0.100893
-0.100275
-0.0997946
-0.0994369
-0.099077
-0.0985126
-0.0975816
-0.0962364
-0.0946017
-0.0929195
-0.0914262
-0.0902408
-0.089387
-0.0887114
-0.0879481
-0.0868707
-0.0853284
-0.0832068
-0.0806344
-0.0777796
-0.0749645
-0.0725292
-0.070819
-0.0699061
-0.0697685
-0.0700488
-0.0703511
-0.0703503
-0.0698903
-0.0690827
-0.0682165
-0.0676721
-0.0676982
-0.0682756
-0.0692108
-0.0702122
-0.0710376
-0.071656
-0.0720669
-0.0724747
-0.0730639
-0.0739229
-0.0750747
-0.0766455
-0.0786091
-0.0810305
-0.0837655
-0.086478
-0.0886802
-0.0897406
-0.0888919
-0.0856711
-0.0798237
-0.0714741
-0.0612039
-0.0498691
-0.0386404
-0.0286553
-0.0208003
-0.0155651
-0.0128883
-0.012169
-0.0124312
-0.0125675
-0.0117
-0.00918584
-0.00482874
0.00111842
0.00818806
0.0157747
0.0233697
0.0306052
0.0373254
0.0435048
0.0492116
0.0545503
0.0595471
0.0641433
0.0681778
0.0715061
0.0740325
0.0757082
0.0766756
0.0770929
0.0770971
0.0767855
0.0761801
0.0753274
0.07433
0.0733058
0.072382
0.0715258
0.0706303
0.0694775
0.0678255
0.0656271
0.0628849
0.0598539
0.0566505
0.0533258
0.0499683
0.046575
0.0431811
0.0399448
0.0371396
0.034925
0.0333374
0.0323098
0.0316116
0.0310865
0.0306207
0.0301306
0.0296864
0.029195
0.0285565
0.0275657
0.0260528
0.0239537
0.0213555
0.0183872
0.0153079
0.0123027
0.00950849
0.00694383
0.00456752
0.00235537
9.93143e-5
-0.00238015
-0.00518918
-0.00832523
-0.0116489
-0.0146696
-0.016888
-0.0178898
-0.0174186
-0.0156508
-0.0130704
-0.0103145
-0.00817081
-0.00712037
-0.00748236
-0.00922689
-0.0120334
-0.0154638
-0.0191391
-0.0226354
-0.0257997
-0.0285243
-0.0308244
-0.0327169
-0.0343317
-0.0357584
-0.0370087
-0.0380663
-0.0387313
-0.0387465
-0.037802
-0.0358411
-0.0331168
-0.0301347
-0.0274903
-0.0255582
-0.024204
-0.0228724
-0.0206542
-0.0168695
-0.0112209
-0.00408511
0.00374772
0.0114106
0.0184452
0.0249007
0.0312743
0.038149
0.0457798
0.0537707
0.0613451
0.0673798
0.0710293
0.0721296
0.0710303
0.0686872
0.0660711
0.0638394
0.0621592
0.0605561
0.0582557
0.0547317
0.0500826
0.0451695
0.04163
0.0412672
0.0451674
0.0532645
0.0638522
0.0741732
0.0810957
0.0820704
0.0759804
0.0633326
0.0459394
0.0262647
0.00663181
-0.0112014
-0.0263321
-0.0384971
-0.0478587
-0.0547226
-0.0593377
-0.0620199
-0.0632469
-0.0635366
-0.0634668
-0.0636525
-0.0644419
-0.065833
-0.0676154
-0.0693285
-0.070445
-0.0707356
-0.0700901
-0.0687055
-0.0669154
-0.0650979
-0.0635954
-0.0626941
-0.0627515
-0.0642423
-0.0680125
-0.0751416
-0.0867848
-0.103935
-0.126875
-0.154855
-0.185611
-0.214978
-0.23701
-0.244448
-0.228922
-0.181915
-0.0964996
0.0307761
0.197173
0.391566
0.593658
0.775775
0.907454
0.96251
0.926338
0.801182
0.606943
0.37671
0.14839
-0.0448566
-0.182159
-0.258056
-0.280833
-0.267252
-0.23603
-0.202284
-0.17502
-0.15726
-0.147975
-0.14416
-0.142945
-0.142411
-0.141485
-0.139834
-0.137423
-0.134373
-0.131029
-0.127891
-0.125532
-0.124438
-0.124738
-0.12608
-0.12784
-0.129206
-0.129452
-0.128206
-0.125406
-0.121403
-0.116726
-0.111979
-0.107671
-0.104242
-0.101929
-0.100813
-0.100866
-0.101892
-0.103559
-0.105268
-0.106356
-0.106102
-0.103981
-0.099853
-0.0940001
-0.0872171
-0.080456
-0.0746164
-0.0702898
-0.0677374
-0.0668448
-0.0673508
-0.0689596
-0.0714057
-0.0745168
-0.0779838
-0.0813912
-0.0843071
-0.0863235
-0.0872748
-0.087346
-0.0869753
-0.0865367
-0.0862653
-0.0859566
-0.0851958
-0.0834621
-0.0805472
-0.0766772
-0.0725341
-0.0691043
-0.0671122
-0.0669885
-0.0685293
-0.0711203
-0.0739954
-0.0764924
-0.0782842
-0.0794737
-0.0803594
-0.0812543
-0.0823578
-0.083543
-0.0844581
-0.0846247
-0.0836819
-0.0812898
-0.0772756
-0.071602
-0.0643713
-0.055856
-0.0465897
-0.0373392
-0.0290685
-0.0225035
-0.0180404
-0.0155047
-0.0142473
-0.0133828
-0.0120963
-0.00985339
-0.00653615
-0.00238037
0.00223005
0.00701452
0.0118055
0.0165597
0.0214601
0.0265047
0.0317413
0.0370065
0.0421697
0.0471201
0.051808
0.0562624
0.0605915
0.0647909
0.0688507
0.0725546
0.0757762
0.0782599
0.0798796
0.0805844
0.0803113
0.0791468
0.0771899
0.0745931
0.0715785
0.0684117
0.0653254
0.0625303
0.0600803
0.0579358
0.0559267
0.0539397
0.0518713
0.049785
0.0479068
0.0465458
0.0460559
0.0466264
0.0481219
0.050137
0.0519305
0.0527003
0.051855
0.0492649
0.0453538
0.0408304
0.0365624
0.0331489
0.0308386
0.0293727
0.0282809
0.0271031
0.0254913
0.0233316
0.0207379
0.0179428
0.015138
0.0125512
0.0102679
0.00831424
0.00661655
0.00503902
0.00336943
0.00155532
-0.000322902
-0.00210391
-0.00356387
-0.00446396
-0.00477732
-0.00449578
-0.00399726
-0.00364876
-0.00380904
-0.00468311
-0.00619687
-0.00793435
-0.00941899
-0.0102625
-0.0102758
-0.00971788
-0.00916915
-0.00919774
-0.0102101
-0.0122727
-0.0149771
-0.0178026
-0.0201472
-0.0216704
-0.022179
-0.0216144
-0.0198199
-0.0166011
-0.0116914
-0.00496363
0.00349424
0.0130209
0.0228212
0.0319966
0.0398519
0.0463224
0.0518291
0.0570452
0.0627835
0.0693846
0.0766134
0.083675
0.0895462
0.0930924
0.0936589
0.091198
0.0862704
0.0800775
0.0738785
0.0688014
0.0653748
0.0635071
0.0625089
0.0616949
0.0606957
0.0598531
0.0601137
0.0625097
0.0673
0.0735288
0.079089
0.0811888
0.0775325
0.0671861
0.0509641
0.0312296
0.0109328
-0.00730947
-0.0219786
-0.0327253
-0.0400654
-0.044825
-0.0476825
-0.0491814
-0.0497168
-0.0498699
-0.0502289
-0.0513582
-0.0534917
-0.0563896
-0.0593663
-0.0615553
-0.0622912
-0.0612843
-0.058752
-0.0552585
-0.0516519
-0.048761
-0.0472587
-0.0476328
-0.0504232
-0.0562952
-0.0660985
-0.0807435
-0.100909
-0.126518
-0.156113
-0.186592
-0.213311
-0.230807
-0.233805
-0.218197
-0.181601
-0.123406
-0.0436538
0.0574027
0.179541
0.321647
0.479857
0.645181
0.802195
0.92955
1.00389
1.00584
0.926474
0.771809
0.563191
0.332775
0.11529
-0.0606323
-0.179169
-0.23935
-0.25247
-0.236278
-0.208387
-0.181584
-0.162262
-0.151327
-0.146634
-0.145124
-0.144501
-0.143649
-0.142311
-0.140708
-0.139129
-0.137824
-0.137083
-0.136954
-0.137408
-0.138306
-0.139366
-0.140278
-0.140778
-0.140731
-0.139949
-0.138485
-0.13645
-0.134012
-0.131487
-0.129073
-0.12703
-0.125543
-0.124569
-0.123972
-0.123385
-0.122322
-0.120315
-0.117112
-0.112687
-0.107382
-0.101771
-0.0965294
-0.092162
-0.0889691
-0.0869528
-0.0858579
-0.0854694
-0.0854904
-0.0856595
-0.0858511
-0.0860709
-0.086345
-0.0867075
-0.0872458
-0.0878927
-0.0885733
-0.0890517
-0.0891205
-0.0887937
-0.0880717
-0.087156
-0.0863004
-0.0857304
-0.085496
-0.0856057
-0.0859165
-0.08635
-0.086811
-0.0871161
-0.08711
-0.0866128
-0.0856173
-0.0841453
-0.0824988
-0.0811535
-0.0806039
-0.0812133
-0.0829997
-0.0857563
-0.0890044
-0.0921521
-0.0945779
-0.0957976
-0.0953831
-0.0929216
-0.0881215
-0.0808817
-0.0712547
-0.0596454
-0.04664
-0.0332066
-0.0203529
-0.00905802
-2.18186e-5
0.0063803
0.0103753
0.0125441
0.0138684
0.0153007
0.0176433
0.0213607
0.0263952
0.0324376
0.0389733
0.0455043
0.0517965
0.0577652
0.0634333
0.0688373
0.0737824
0.0780348
0.0812811
0.0833637
0.0844104
0.0847923
0.0848776
0.0850466
0.0852943
0.0853489
0.0848981
0.0837095
0.0817563
0.079363
0.0769732
0.0750409
0.0738264
0.0732698
0.0731496
0.0731511
0.0729071
0.0722528
0.0711711
0.069691
0.0678771
0.06566
0.062973
0.0596924
0.0558842
0.0517376
0.0475624
0.043777
0.0407091
0.0384431
0.03691
0.0358897
0.0349805
0.0339046
0.0324937
0.0307828
0.0289058
0.0270902
0.0255182
0.0242319
0.0232145
0.0222782
0.0213011
0.0201988
0.01892
0.0175942
0.0163093
0.0150575
0.013816
0.0124638
0.0107939
0.0086712
0.00598769
0.00278618
-0.000765225
-0.00430185
-0.00747633
-0.00989878
-0.0113606
-0.0118982
-0.0117399
-0.0113146
-0.0110937
-0.0114413
-0.0125219
-0.0141862
-0.0161092
-0.0178053
-0.018849
-0.0189108
-0.0179071
-0.0159915
-0.0135307
-0.0109432
-0.00859133
-0.00666459
-0.00511041
-0.00365628
-0.00178074
0.000960594
0.00492701
0.0102436
0.0167329
0.0238872
0.0311777
0.0381537
0.04445
0.0500538
0.055228
0.0602785
0.0656091
0.0712988
0.0770405
0.0822496
0.0861187
0.0880312
0.0876729
0.0851824
0.0810904
0.0762482
0.0714448
0.0674188
0.064752
0.0640339
0.0653519
0.0684571
0.0723766
0.0755129
0.0760192
0.0723008
0.0635055
0.04997
0.0331487
0.0151157
-0.00194279
-0.0163568
-0.0273673
-0.0350346
-0.0398301
-0.0425495
-0.0437516
-0.0439904
-0.0436104
-0.0429387
-0.0422397
-0.0418669
-0.0419404
-0.042369
-0.0429375
-0.0434872
-0.0438294
-0.0440807
-0.0443558
-0.0448295
-0.0454541
-0.0460704
-0.0464296
-0.0465761
-0.046822
-0.0478322
-0.050737
-0.0566324
-0.0665619
-0.0811874
-0.100841
-0.125251
-0.153412
-0.182769
-0.209082
-0.226229
-0.226138
-0.19936
-0.136619
-0.0310991
0.118407
0.304143
0.507758
0.701256
0.851447
0.927993
0.911978
0.802761
0.619668
0.397379
0.176368
-0.00830556
-0.135437
-0.201124
-0.21603
-0.199052
-0.169691
-0.142338
-0.123998
-0.115538
-0.114198
-0.116129
-0.118451
-0.119513
-0.118867
-0.116675
-0.113381
-0.109431
-0.105273
-0.101274
-0.097582
-0.0942287
-0.0912185
-0.0884798
-0.0861252
-0.0842715
-0.0830636
-0.082473
-0.0823385
-0.0823595
-0.0822702
-0.0819183
-0.081233
-0.0803284
-0.079222
-0.0779373
-0.0763716
-0.0745174
-0.0723995
-0.0702247
-0.0681682
-0.0664176
-0.0650314
-0.0638546
-0.0626029
-0.061038
-0.0589254
-0.0562373
-0.0530564
-0.0495983
-0.046124
-0.0429538
-0.0403685
-0.038703
-0.0381876
-0.0389197
-0.04084
-0.043617
-0.0466944
-0.0493435
-0.0511036
-0.0516698
-0.0512377
-0.0503517
-0.0495521
-0.0493625
-0.0498889
-0.0509248
-0.0519506
-0.0524784
-0.0522469
-0.0511952
-0.0496349
-0.0479301
-0.0464014
-0.0452967
-0.0446582
-0.0444355
-0.044641
-0.045319
-0.0465623
-0.0484707
-0.0510136
-0.0540353
-0.0572298
-0.0602095
-0.0623992
-0.0633325
-0.0623421
-0.0588202
-0.0524305
-0.0430301
-0.0309963
-0.017166
-0.00266213
0.0112776
0.0236597
0.0338791
0.0419568
0.0482833
0.0535466
0.0584825
0.0636397
0.0692366
0.0753072
0.0816014
0.0878771
0.0939006
0.0994644
0.104477
0.108825
0.112227
0.114357
0.114858
0.113418
0.109949
0.104824
0.0987228
0.0926223
0.0876286
0.0844576
0.083308
0.083771
0.0849293
0.0856662
0.0850366
0.082491
0.0781103
0.0724045
0.0663418
0.0608193
0.0566345
0.0541016
0.0532036
0.0535111
0.0543806
0.0551084
0.0552156
0.0543289
0.0523349
0.0492912
0.0454129
0.0410096
0.036549
0.0325025
0.0291574
0.0265647
0.0244396
0.0222371
0.0193976
0.015656
0.01117
0.00658995
0.00270852
0.000308683
-0.000378948
0.000319436
0.00175997
0.00311565
0.00374397
0.00333974
0.00199222
-3.40234e-5
-0.00236099
-0.00467307
-0.00674275
-0.00841059
-0.00956646
-0.0101508
-0.0103227
-0.0103039
-0.0103591
-0.010776
-0.0116556
-0.0129168
-0.0142317
-0.0152352
-0.015636
-0.0153465
-0.0145495
-0.013747
-0.0135834
-0.0144239
-0.0164275
-0.0190628
-0.0213962
-0.0221729
-0.0202916
-0.0151858
-0.00700245
0.00338103
0.0146733
0.0255286
0.0350212
0.0427355
0.0489409
0.0542731
0.05936
0.0645253
0.06967
0.0742138
0.0774044
0.0785312
0.0773171
0.0738534
0.0686372
0.0624695
0.0562288
0.0506808
0.0466772
0.0449544
0.0460298
0.0497045
0.054985
0.0601758
0.0629649
0.0612264
0.05366
0.040338
0.022693
0.00325012
-0.0152388
-0.0306773
-0.0420391
-0.0494665
-0.0539685
-0.056664
-0.0583915
-0.0594365
-0.0596932
-0.0588833
-0.0570041
-0.0545922
-0.0525277
-0.0515781
-0.0520797
-0.0537
-0.0555828
-0.0565163
-0.0556028
-0.0527714
-0.0487037
-0.044765
-0.0426411
-0.0438872
-0.0496769
-0.0607491
-0.0773688
-0.0995626
-0.127195
-0.159275
-0.193124
-0.223604
-0.242261
-0.237437
-0.195829
-0.105889
0.0374497
0.228052
0.445819
0.657892
0.825078
0.911888
0.897272
0.781897
0.589042
0.358168
0.133356
-0.0492116
-0.169774
-0.227465
-0.235998
-0.215897
-0.186596
-0.161137
-0.144789
-0.137017
-0.134596
-0.134076
-0.133371
-0.131754
-0.129477
-0.127152
-0.12529
-0.124249
-0.124121
-0.124597
-0.12528
-0.125627
-0.125212
-0.123874
-0.121738
-0.119179
-0.116665
-0.114523
-0.112983
-0.112099
-0.111754
-0.111713
-0.111657
-0.111206
-0.110004
-0.107869
-0.104833
-0.101315
-0.0978667
-0.0951942
-0.0938058
-0.0938779
-0.0951726
-0.0969743
-0.0984109
-0.0986553
-0.0971577
-0.0938824
-0.0893154
-0.084196
-0.0795261
-0.0760856
-0.0743345
-0.0742205
-0.0753227
-0.0767884
-0.077811
-0.0776769
-0.0761196
-0.073319
-0.0699224
-0.0667192
-0.0644996
-0.0637251
-0.0643717
-0.0660035
-0.0679349
-0.0693667
-0.0697376
-0.0688919
-0.0670169
-0.0647341
-0.0627295
-0.0615858
-0.0617038
-0.0632173
-0.0660164
-0.0698063
-0.074218
-0.0789674
-0.0836529
-0.0880013
-0.0916465
-0.0942872
-0.0956406
-0.0955655
-0.0939931
-0.0909944
-0.0866236
-0.0808788
-0.0738036
-0.0653082
-0.0553594
-0.0441689
-0.0320891
-0.0196465
-0.00741479
0.00419706
0.0149923
0.0250381
0.0346029
0.0438684
0.0529933
0.0619624
0.0705254
0.0784452
0.0854045
0.0911839
0.0956585
0.0989276
0.101211
0.102842
0.104215
0.105607
0.107107
0.108546
0.109667
0.110011
0.109201
0.10707
0.103687
0.0993807
0.0946402
0.0899602
0.0857442
0.0822273
0.0794414
0.0773697
0.0758441
0.0746428
0.0736187
0.0724419
0.0707869
0.0684922
0.0655438
0.0621358
0.0587264
0.0558783
0.0540064
0.053323
0.0537116
0.0547821
0.0559562
0.056708
0.0566303
0.0555649
0.0535732
0.0508221
0.0475381
0.0440061
0.0405775
0.037524
0.0351124
0.033404
0.0323674
0.0317232
0.0310072
0.0298722
0.0281484
0.0258011
0.0231068
0.0204485
0.018168
0.0164494
0.0153679
0.0148161
0.0146275
0.0146572
0.0147198
0.0147352
0.014591
0.0143553
0.0140983
0.013926
0.0139197
0.0139959
0.0139667
0.013557
0.0125224
0.0108078
0.00858383
0.00626937
0.004387
0.00343674
0.00371183
0.00535516
0.00837746
0.0126611
0.0180246
0.0241541
0.0306994
0.0373492
0.0439503
0.0506245
0.057644
0.0651974
0.073365
0.0817217
0.0894984
0.0957928
0.099835
0.101271
0.100152
0.0969391
0.0921996
0.0865287
0.0804339
0.0744407
0.069355
0.0660607
0.0652578
0.0671122
0.0708372
0.0747158
0.0764174
0.0738128
0.065645
0.0521612
0.0349923
0.0166182
-0.000387531
-0.0141127
-0.0237756
-0.0296617
-0.0327166
-0.0341101
-0.034815
-0.0354873
-0.036476
-0.0377248
-0.039043
-0.0402915
-0.0412913
-0.0419734
-0.0424563
-0.042825
-0.0431028
-0.0432224
-0.0428911
-0.041871
-0.0401344
-0.0379674
-0.0360833
-0.0355922
-0.0375804
-0.0429796
-0.05231
-0.0657682
-0.0833782
-0.105186
-0.131001
-0.159497
-0.187398
-0.208523
-0.213239
-0.189382
-0.124499
-0.00978769
0.154995
0.357833
0.573282
0.765601
0.896799
0.937105
0.874425
0.719385
0.503278
0.269049
0.0588841
-0.0971765
-0.187759
-0.219433
-0.210615
-0.182932
-0.153893
-0.133253
-0.123034
-0.120605
-0.121876
-0.123678
-0.124438
-0.124062
-0.123116
-0.122087
-0.121157
-0.120269
-0.11929
-0.118043
-0.116565
-0.114945
-0.113465
-0.112322
-0.111742
-0.111682
-0.111896
-0.111972
-0.111362
-0.109679
-0.106775
-0.102737
-0.098073
-0.0933158
-0.0890677
-0.0857404
-0.0834781
-0.0819745
-0.0808504
-0.0795141
-0.0774969
-0.0746039
-0.0709757
-0.0670366
-0.0633641
-0.0604621
-0.0586079
-0.057796
-0.0576672
-0.0578565
-0.0579371
-0.057614
-0.0567569
-0.0554799
-0.053974
-0.0525239
-0.0513728
-0.0507204
-0.05066
-0.0511341
-0.0519837
-0.0529697
-0.053918
-0.054733
-0.0552094
-0.0553128
-0.0548887
-0.0538893
-0.0522824
-0.050164
-0.0478095
-0.0456026
-0.0438761
-0.0429436
-0.0429001
-0.043605
-0.0449095
-0.0468013
-0.0493391
-0.052679
-0.056909
-0.0619075
-0.0672533
-0.0722553
-0.0760583
-0.077932
-0.0772571
-0.0737165
-0.0671291
-0.057481
-0.0449886
-0.0299815
-0.0131955
0.00451819
0.0220728
0.0384135
0.052727
0.0645593
0.073813
0.0807447
0.0857721
0.0893434
0.0918643
0.0936861
0.0949667
0.0958845
0.0963791
0.0964142
0.0959186
0.0948267
0.0932207
0.0912987
0.0893429
0.0875925
0.0862098
0.0852548
0.0846333
0.0841828
0.0838677
0.083552
0.0831827
0.0826446
0.0818777
0.0807671
0.0792521
0.0773355
0.0750829
0.0725028
0.0696076
0.0664462
0.0630289
0.0593899
0.0557009
0.0520395
0.0485915
0.0454783
0.0427375
0.0403686
0.0382411
0.0361727
0.0339271
0.0312773
0.0281879
0.0247868
0.0214011
0.0184382
0.0163066
0.0152459
0.0151557
0.0157313
0.0164385
0.01677
0.0162837
0.0147986
0.0123582
0.00913781
0.00536685
0.0012708
-0.0029612
-0.00703157
-0.0107164
-0.0137473
-0.0158943
-0.0170442
-0.0174079
-0.0172732
-0.0170724
-0.0171417
-0.0177246
-0.0187444
-0.019952
-0.0209181
-0.0213219
-0.0209538
-0.0197199
-0.0178122
-0.0154748
-0.0131053
-0.0110123
-0.0094727
-0.00849172
-0.00789637
-0.00722675
-0.00581228
-0.00304443
0.0014422
0.00765305
0.015258
0.023667
0.0322239
0.0404902
0.0482088
0.0553798
0.0619838
0.0680076
0.0732772
0.0774362
0.0800957
0.0810199
0.080112
0.0775632
0.073781
0.0692685
0.0645462
0.0600629
0.0563598
0.0539981
0.0535097
0.055234
0.058934
0.0637342
0.0680944
0.0703007
0.0689675
0.0634544
0.0540834
0.0420275
0.0288804
0.0161105
0.00480305
-0.00451378
-0.0118611
-0.0175205
-0.0220307
-0.0260361
-0.0300849
-0.0345765
-0.0395597
-0.044782
-0.0498272
-0.0541631
-0.0574529
-0.0595552
-0.0605807
-0.0607389
-0.0602653
-0.0594565
-0.0584557
-0.0574614
-0.05667
-0.0561283
-0.0559137
-0.055986
-0.0562915
-0.056906
-0.0583467
-0.0616795
-0.0685428
-0.0807004
-0.0996198
-0.125791
-0.157922
-0.192327
-0.222727
-0.240602
-0.235611
-0.196911
-0.11517
0.0144452
0.189047
0.395203
0.608303
0.795338
0.921513
0.959359
0.897294
0.744323
0.528961
0.291684
0.0737558
-0.0937898
-0.196809
-0.238804
-0.235868
-0.209149
-0.177375
-0.152385
-0.138391
-0.134058
-0.135513
-0.138923
-0.141774
-0.143135
-0.143038
-0.141909
-0.140057
-0.137599
-0.13464
-0.131176
-0.127331
-0.123309
-0.119342
-0.115676
-0.11244
-0.109579
-0.107049
-0.104794
-0.102851
-0.101389
-0.100549
-0.100348
-0.100574
-0.100768
-0.100273
-0.0986023
-0.0956917
-0.0918458
-0.0877413
-0.0840898
-0.0814881
-0.0800491
-0.079541
-0.0795229
-0.0794852
-0.0791494
-0.0783389
-0.0770794
-0.0754507
-0.0734708
-0.0711988
-0.0687706
-0.066429
-0.0645139
-0.0633251
-0.0630059
-0.0635104
-0.0645205
-0.0656013
-0.0662906
-0.0663466
-0.0657004
-0.0644695
-0.0629178
-0.0613043
-0.0598114
-0.058466
-0.0572936
-0.0562079
-0.0552249
-0.054379
-0.0536286
-0.053081
-0.0527106
-0.0525937
-0.05283
-0.053556
-0.0549974
-0.0573426
-0.0606132
-0.0647913
-0.0695631
-0.0744522
-0.0789174
-0.082423
-0.0844472
-0.0845751
-0.082374
-0.0776078
-0.0702176
-0.0604454
-0.0489084
-0.0365662
-0.0243977
-0.0133101
-0.00376029
0.00423055
0.011054
0.017255
0.0234057
0.0298187
0.0365673
0.0434861
0.0502989
0.0567192
0.0625528
0.0677517
0.0723456
0.0763509
0.0797755
0.0826045
0.0847812
0.086418
0.0875755
0.0884658
0.0893476
0.090366
0.0914411
0.0923559
0.0927417
0.0922935
0.0907915
0.0883213
0.0851625
0.0818805
0.0789768
0.0769441
0.0760014
0.0760513
0.0766757
0.0774063
0.0776826
0.0771433
0.0756988
0.0735425
0.0710183
0.0685369
0.0663511
0.0644156
0.0625594
0.0604497
0.0577919
0.0545292
0.0507384
0.0467193
0.0428093
0.0391598
0.0359022
0.0329706
0.0303164
0.0278092
0.0254683
0.0232733
0.0212575
0.019528
0.0181385
0.0169911
0.0159798
0.0149647
0.0137711
0.0123289
0.0106033
0.00864302
0.00651283
0.00425582
0.00185575
-0.000662579
-0.00331175
-0.00608364
-0.00881703
-0.0113685
-0.0137222
-0.0158629
-0.0178285
-0.0196121
-0.0212187
-0.0224983
-0.0232868
-0.0233392
-0.0225463
-0.0209485
-0.0187994
-0.0164689
-0.0143667
-0.0128074
-0.0119289
-0.0117013
-0.0119175
-0.0124672
-0.0132426
-0.0142281
-0.0153484
-0.0165171
-0.0173809
-0.0174497
-0.0161724
-0.0132022
-0.00838642
-0.0019588
0.00544431
0.0130144
0.0199706
0.0258794
0.0305943
0.0344782
0.0381114
0.0421303
0.0470039
0.0528473
0.059327
0.0657747
0.0714472
0.0756144
0.0778051
0.0779694
0.0762657
0.0732017
0.0692461
0.0649379
0.0607891
0.0573561
0.0551309
0.0545038
0.055414
0.0571506
0.0585385
0.0581816
0.0549454
0.0481864
0.0382733
0.0261515
0.0133581
0.00126565
-0.00916804
-0.0176327
-0.0243226
-0.029713
-0.0344021
-0.0387472
-0.0429005
-0.0468001
-0.0502342
-0.0530838
-0.0552693
-0.0568771
-0.0579889
-0.0587044
-0.059101
-0.0592229
-0.0592269
-0.0592948
-0.0596789
-0.0605861
-0.0620801
-0.0639089
-0.0656597
-0.0666968
-0.0667013
-0.0656349
-0.0639331
-0.0625216
-0.0626766
-0.0658926
-0.0736032
-0.0868965
-0.106271
-0.131427
-0.160714
-0.190895
-0.216876
-0.231936
-0.228125
-0.196751
-0.129498
-0.020352
0.131965
0.321211
0.531552
0.737627
0.907637
1.00987
1.02093
0.933292
0.759194
0.528584
0.281735
0.058594
-0.111374
-0.215217
-0.256917
-0.252761
-0.223973
-0.189372
-0.161117
-0.14375
-0.136217
-0.134711
-0.135396
-0.135891
-0.135443
-0.134391
-0.133332
-0.132565
-0.132033
-0.131388
-0.13027
-0.128434
-0.125892
-0.12293
-0.119945
-0.117285
-0.115094
-0.113328
-0.111668
-0.109681
-0.107081
-0.103774
-0.0999291
-0.0960779
-0.092804
-0.0905715
-0.089512
-0.0893791
-0.0896113
-0.0896794
-0.0892411
-0.088229
-0.0868454
-0.0854185
-0.0840949
-0.0828818
-0.0815043
-0.0797325
-0.0774913
-0.0749064
-0.0724061
-0.0704357
-0.0693438
-0.0692505
-0.0700617
-0.0715154
-0.0731699
-0.0747252
-0.0758991
-0.0765336
-0.0766307
-0.0761742
-0.0751473
-0.0735908
-0.0715662
-0.0692283
-0.066839
-0.0647495
-0.0632822
-0.0626231
-0.0628155
-0.063618
-0.0646025
-0.0653247
-0.0654433
-0.0649399
-0.0639931
-0.0630378
-0.0625776
-0.0630105
-0.0645737
-0.0672481
-0.0708325
-0.0748614
-0.0787963
-0.081882
-0.0833311
-0.082412
-0.0785976
-0.0716134
-0.0616977
-0.0494403
-0.0358471
-0.0220819
-0.0092698
0.00146083
0.00951488
0.01462
0.0169869
0.0172687
0.0163494
0.0152705
0.0149005
0.0159309
0.0186481
0.023001
0.0286345
0.0349739
0.0414227
0.0475253
0.052957
0.0575271
0.0612589
0.0642642
0.0668544
0.06938
0.072186
0.0755368
0.0794999
0.0838479
0.0879994
0.0914998
0.0937434
0.0945854
0.0941114
0.0926847
0.0908257
0.0888912
0.0871921
0.0858216
0.0847978
0.0839314
0.083038
0.0819562
0.0805315
0.0787262
0.0766172
0.0744079
0.0723442
0.0706002
0.0691622
0.0678243
0.0663212
0.0643663
0.0619001
0.0590358
0.0561054
0.0533743
0.0511058
0.0493032
0.0478992
0.0467393
0.0455603
0.0441955
0.0424715
0.0402706
0.0375041
0.0342738
0.0307619
0.0272141
0.0238968
0.020955
0.0184473
0.0163541
0.0144948
0.0128254
0.0111921
0.00954331
0.00772832
0.0056924
0.00338443
0.000812451
-0.00189702
-0.00461536
-0.00716411
-0.00934165
-0.0110063
-0.0120696
-0.0124938
-0.0122994
-0.0116748
-0.010775
-0.00986892
-0.0092016
-0.00897456
-0.00931397
-0.0101757
-0.0114403
-0.012886
-0.0143396
-0.0156464
-0.0167966
-0.0178692
-0.019
-0.020097
-0.0209551
-0.0211539
-0.0200641
-0.0172811
-0.0124916
-0.00583507
0.0021295
0.010594
0.018725
0.0258873
0.031846
0.0369083
0.0416713
0.0469146
0.0532099
0.060634
0.068761
0.0766472
0.0831555
0.0872792
0.0884019
0.0865135
0.0819663
0.075556
0.0681634
0.0607114
0.0541665
0.0494706
0.0473942
0.0482375
0.0514796
0.0557783
0.0592071
0.0598108
0.0562735
0.0483141
0.0367281
0.0230445
0.00891378
-0.00437366
-0.0162071
-0.0264061
-0.0350855
-0.0423581
-0.0481678
-0.0524308
-0.0551251
-0.0564598
-0.0567597
-0.0565324
-0.0562767
-0.056424
-0.0572388
-0.0587347
-0.0608746
-0.0633515
-0.0658508
-0.0680375
-0.0695951
-0.0701635
-0.0695941
-0.0678918
-0.0652971
-0.0623525
-0.059829
-0.0587817
-0.06045
-0.066196
-0.0772122
-0.0943558
-0.117828
-0.146971
-0.179806
-0.21253
-0.239732
-0.254261
-0.24772
-0.211065
-0.136215
-0.018186
0.14194
0.334425
0.539603
0.729443
0.872077
0.93919
0.914123
0.797696
0.609473
0.383392
0.15869
-0.0302504
-0.162175
-0.232204
-0.249871
-0.23321
-0.201689
-0.170368
-0.147434
-0.134899
-0.130692
-0.131449
-0.134221
-0.137326
-0.139953
-0.141871
-0.142922
-0.143041
