-0.106537
-0.109003
-0.112003
-0.115211
-0.118028
-0.119651
-0.119312
-0.116225
-0.109866
-0.10023
-0.0877038
-0.0732992
-0.0583176
-0.0441362
-0.0319415
-0.0224327
-0.0155183
-0.0105251
-0.00624449
-0.00138106
0.00508066
0.013528
0.0237993
0.0352836
0.0472567
0.0590927
0.070485
0.081222
0.091182
0.100289
0.108203
0.114671
0.119505
0.122734
0.124502
0.12513
0.124909
0.124101
0.122848
0.121188
0.119151
0.116795
0.114123
0.111228
0.108194
0.105175
0.10224
0.0996804
0.0976217
0.0962401
0.0955773
0.0955312
0.0957943
0.0960561
0.0959039
0.0949382
0.0930556
0.0902613
0.0868303
0.083127
0.0795482
0.0764935
0.0740838
0.0722383
0.0707099
0.0691259
0.0671896
0.0646585
0.0613909
0.0573608
0.0526216
0.0472605
0.0416944
0.0362918
0.0316835
0.0283136
0.0265366
0.0263466
0.0273868
0.0289478
0.0303615
0.0309607
0.0303788
0.0286011
0.0259246
0.0227363
0.0195645
0.0167177
0.0142764
0.0121142
0.00995179
0.00763927
0.00509342
0.00247486
0.000116977
-0.00165943
-0.00263379
-0.00285594
-0.00266409
-0.00250693
-0.00284498
-0.00389441
-0.00571507
-0.00804591
-0.010524
-0.0127626
-0.0144953
-0.0155042
-0.015692
-0.0151541
-0.0141059
-0.0127618
-0.0114452
-0.0103844
-0.00967644
-0.0092376
-0.00887592
-0.00844718
-0.00801222
-0.00782501
-0.00826265
-0.00965042
-0.0120736
-0.0150559
-0.0178251
-0.0192446
-0.0182399
-0.0140929
-0.00668896
0.00341804
0.0151642
0.0273457
0.0387172
0.0485148
0.0563664
0.0625111
0.0674183
0.0716991
0.0758124
0.0798003
0.0834718
0.0862811
0.0876519
0.0871757
0.0848638
0.0812019
0.0769628
0.0729685
0.0697194
0.0672225
0.0651932
0.0632742
0.0613853
0.0598446
0.059423
0.0608039
0.064075
0.0683262
0.0718967
0.072644
0.0688815
0.0598756
0.0462686
0.0297875
0.0126112
-0.00315298
-0.0161502
-0.0258223
-0.0323422
-0.0363625
-0.038624
-0.0398588
-0.0406864
-0.041487
-0.042526
-0.043919
-0.0455748
-0.0474441
-0.0494693
-0.0515533
-0.053567
-0.0553492
-0.0565313
-0.0567716
-0.0558641
-0.0540392
-0.0522642
-0.0524278
-0.0569928
-0.0684963
-0.0886978
-0.117638
-0.152727
-0.188373
-0.216139
-0.225494
-0.204993
-0.143595
-0.0330072
0.129252
0.336742
0.571484
0.803737
0.995923
1.11044
1.12007
1.01724
0.818248
0.560131
0.290775
0.0554052
-0.115388
-0.211698
-0.24306
-0.23113
-0.200166
-0.169095
-0.147853
-0.138128
-0.136767
-0.139542
-0.143284
-0.1466
-0.149351
-0.151763
-0.153882
-0.155474
-0.156331
-0.156465
-0.156169
-0.155785
-0.155632
-0.155809
-0.156218
-0.156629
-0.156741
-0.156318
-0.155173
-0.153369
-0.150983
-0.148251
-0.145407
-0.142718
-0.140318
-0.138261
-0.136565
-0.135095
-0.133813
-0.132646
-0.131613
-0.130781
-0.130184
-0.129807
-0.129598
-0.129427
-0.129161
-0.128733
-0.128014
-0.126956
-0.125556
-0.123855
-0.122039
-0.120265
-0.118754
-0.117517
-0.1165
-0.115407
-0.114067
-0.112264
-0.1101
-0.107801
-0.105647
-0.103872
-0.102494
-0.101328
-0.100036
-0.0983503
-0.0962099
-0.0938728
-0.0917485
-0.0904069
-0.090259
-0.0915482
-0.0942288
-0.0980262
-0.102494
-0.107119
-0.111384
-0.114975
-0.117573
-0.119145
-0.11965
-0.119242
-0.117991
-0.115916
-0.11281
-0.108356
-0.102054
-0.0934431
-0.0821769
-0.0681175
-0.0515449
-0.0330539
-0.0136231
0.00566663
0.0238478
0.0401216
0.0540732
0.0655654
0.0746524
0.0816169
0.0868059
0.0906626
0.093679
0.0964278
0.0992342
0.102333
0.105584
0.108644
0.111096
0.112576
0.112913
0.112293
0.111039
0.109637
0.108512
0.10784
0.107533
0.107227
0.106479
0.104752
0.101749
0.0975293
0.0923628
0.0868001
0.0814153
0.0766859
0.0728027
0.0697708
0.0673938
0.0653859
0.0636189
0.0620565
0.0607706
0.0598426
0.0591794
0.0584495
0.0573309
0.0554008
0.0524654
0.0484654
0.0436361
0.0383837
0.0331925
0.0284817
0.0245962
0.0218542
0.0202762
0.0197484
0.0199259
0.0202556
0.0202087
0.0192874
0.0173096
0.0144688
0.0112202
0.00816278
0.00576838
0.00426123
0.00342427
0.00277621
0.00179319
8.98164e-5
-0.00246582
-0.00570262
-0.00924463
-0.0125964
-0.0153303
-0.0171412
-0.0178667
-0.0175318
-0.0162995
-0.014527
-0.0125999
-0.0109033
-0.00969109
-0.00895478
-0.00863842
-0.00862293
-0.00873426
-0.00900479
-0.00951574
-0.0103241
-0.0114363
-0.0127851
-0.0141527
-0.0153937
-0.0164552
-0.0173468
-0.0182436
-0.0192509
-0.0203807
-0.0214656
-0.0221658
-0.0220691
-0.0206958
-0.0175292
-0.0122665
-0.00483248
0.00445681
0.0149281
0.0255904
0.0354439
0.0438138
0.0505887
0.0561784
0.0613252
0.0668062
0.0729168
0.0794024
0.0854604
0.0900211
0.0921529
0.0913348
0.0876599
0.0817971
0.0748117
0.0678344
0.061643
0.0564826
0.0521524
0.0483145
0.0447931
0.0420567
0.0409914
0.0425372
0.0469773
0.0535201
0.0602348
0.0645899
0.0642553
0.0579739
0.0459938
0.0298165
0.0117681
-0.0058303
-0.0212086
-0.033317
-0.0418929
-0.047185
-0.0497662
-0.0504311
-0.0501688
-0.0499397
-0.0505107
-0.0523222
-0.0554009
-0.0594294
-0.063709
-0.0676294
-0.0704991
-0.071783
-0.0711887
-0.0687083
-0.0647129
-0.060035
-0.056062
-0.0545863
-0.0577214
-0.0674112
-0.0849581
-0.11047
-0.142152
-0.175988
-0.205485
-0.222304
-0.217641
-0.183468
-0.113579
-0.00446161
0.144008
0.327452
0.535812
0.752149
0.952266
1.10707
1.18761
1.17279
1.05702
0.854419
0.597213
0.328037
0.088679
-0.0908505
-0.198684
-0.241379
-0.238178
-0.212483
-0.183886
-0.163764
-0.155137
-0.155492
-0.16034
-0.165848
-0.16991
-0.172093
-0.172886
-0.172915
-0.172599
-0.172257
-0.172005
-0.17195
-0.172129
-0.172406
-0.172665
-0.172712
-0.172382
-0.17154
-0.170066
-0.167921
-0.165259
-0.162204
-0.159053
-0.156121
-0.15371
-0.152029
-0.15106
-0.150736
-0.150769
-0.150741
-0.1503
-0.149158
-0.147209
-0.144555
-0.141462
-0.138194
-0.134996
-0.131998
-0.129284
-0.126956
-0.125165
-0.124146
-0.124015
-0.124805
-0.126268
-0.127991
-0.129392
-0.13001
-0.129635
-0.1283
-0.126323
-0.124061
-0.121931
-0.120076
-0.118484
-0.117058
-0.11562
-0.114059
-0.112497
-0.111046
-0.109858
-0.109054
-0.108654
-0.108577
-0.10883
-0.109564
-0.110974
-0.113344
-0.116838
-0.121303
-0.126314
-0.131208
-0.13522
-0.137777
-0.138513
-0.137291
-0.134128
-0.129072
-0.122093
-0.113022
-0.101611
-0.0876086
-0.0708927
-0.0518004
-0.0310073
-0.0096735
0.0107597
0.0289913
0.0441447
0.0558858
0.0646373
0.0711914
0.0763565
0.0807892
0.0846942
0.0878877
0.0901084
0.0911024
0.0908795
0.0897289
0.0880737
0.086338
0.0847866
0.0834349
0.0821418
0.0807779
0.0793423
0.077992
0.0769394
0.0763713
0.0763296
0.0766258
0.0769993
0.0771456
0.076902
0.0762178
0.0750872
0.0735732
0.071607
0.0691629
0.0661867
0.0628174
0.0591708
0.0555372
0.0520039
0.0486016
0.045289
0.0420156
0.0388621
0.0359737
0.0336085
0.0318688
0.0306886
0.0297713
0.0286326
0.02695
0.0246474
0.0218253
0.0188659
0.0161228
0.0137439
0.0116407
0.00949958
0.00689684
0.00362961
-0.000330068
-0.00470506
-0.0089754
-0.0126063
-0.0152327
-0.0167152
-0.0172608
-0.0173171
-0.0173593
-0.0178431
-0.0189495
-0.0206186
-0.0226225
-0.0246339
-0.0263987
-0.0277412
-0.0286751
-0.029406
-0.030111
-0.0311002
-0.0324752
-0.0342215
-0.0361857
-0.0379673
-0.0392975
-0.0399521
-0.0400056
-0.0397048
-0.039492
-0.0397465
-0.0405726
-0.0419214
-0.0433832
-0.0444744
-0.0448009
-0.0442578
-0.0429558
-0.0411849
-0.03916
-0.0370582
-0.0348542
-0.0324744
-0.0299235
-0.0271799
-0.024271
-0.0211042
-0.0174725
-0.013081
-0.00765237
-0.00115834
0.00628465
0.0141786
0.0220054
0.0292742
0.0356983
0.0412704
0.04606
0.0502683
0.0538908
0.0568251
0.0587409
0.059289
0.058274
0.055727
0.0520688
0.0480502
0.0445161
0.042296
0.0419729
0.0435513
0.0464578
0.0495197
0.0512147
0.0499731
0.0447449
0.0351585
0.0215977
0.00517888
-0.0126126
-0.030158
-0.046041
-0.0591991
-0.0689455
-0.0749976
-0.0774795
-0.0770346
-0.0746845
-0.0715401
-0.0687065
-0.0668433
-0.0661335
-0.066329
-0.0669402
-0.0675359
-0.0679157
-0.068171
-0.0686755
-0.0697472
-0.0715354
-0.0736382
-0.0754363
-0.0763093
-0.0758106
-0.0741093
-0.0721158
-0.0716282
-0.0749308
-0.0842098
-0.101074
-0.125896
-0.157137
-0.190923
-0.22094
-0.238803
-0.23427
-0.196451
-0.115787
0.0129515
0.187193
0.393598
0.607134
0.793862
0.918122
0.951879
0.883945
0.72452
0.503718
0.263359
0.045236
-0.120037
-0.219612
-0.258292
-0.253154
-0.225487
-0.193453
-0.167979
-0.152665
-0.145999
-0.144502
-0.144838
-0.144982
-0.144194
-0.14252
-0.140145
-0.1374
-0.134708
-0.132609
-0.131696
-0.132545
-0.135332
-0.139834
-0.145325
-0.150789
-0.15512
-0.157577
-0.15787
-0.156192
-0.153088
-0.149075
-0.144518
-0.139561
-0.134321
-0.128932
-0.123851
-0.119567
-0.116565
-0.115018
-0.114747
-0.115187
-0.115758
-0.115786
-0.114853
-0.112843
-0.109902
-0.106488
-0.103242
-0.100932
-0.100183
-0.101397
-0.104468
-0.108816
-0.113486
-0.11737
-0.11948
-0.119194
-0.116375
-0.111408
-0.105133
-0.0985661
-0.0926491
-0.0881859
-0.0854957
-0.0845995
-0.0852308
-0.0869969
-0.0895539
-0.092834
-0.0968076
-0.101483
-0.106695
-0.111945
-0.116627
-0.120165
-0.122303
-0.123122
-0.123127
-0.122953
-0.123246
-0.124354
-0.126246
-0.12863
-0.130885
-0.132367
-0.13229
-0.129891
-0.124511
-0.115743
-0.103645
-0.0886327
-0.0715464
-0.0534982
-0.0355939
-0.0186448
-0.00308683
0.0111688
0.024544
0.0375914
0.0507251
0.0639753
0.0769814
0.0891059
0.0996769
0.108177
0.11447
0.11875
0.121393
0.122797
0.123098
0.122389
0.120745
0.118247
0.11525
0.112229
0.10968
0.107854
0.106704
0.105916
0.105028
0.10371
0.101834
0.0994955
0.0970316
0.0947277
0.0927047
0.0909758
0.0893367
0.0874831
0.0851242
0.0820017
0.0779896
0.0731332
0.067551
0.0615539
0.0555465
0.0498898
0.0449995
0.0412617
0.0389303
0.0380128
0.038382
0.0395555
0.0409639
0.042014
0.0422705
0.0415998
0.0401213
0.0381575
0.0360529
0.0340375
0.032194
0.0303141
0.0282279
0.0257327
0.0227703
0.0194876
0.0162668
0.0135332
0.0116846
0.0108884
0.0110324
0.0117955
0.0125937
0.0129466
0.0124675
0.0111072
0.00902212
0.00668917
0.00454555
0.00300751
0.00235659
0.0025029
0.00323134
0.00421469
0.00511051
0.00568683
0.00586398
0.00568809
0.00516944
0.00453158
0.00388136
0.00338977
0.00317342
0.00311825
0.00303763
0.00263138
0.00155725
-0.000282073
-0.00271937
-0.00529467
-0.00737201
-0.00823838
-0.0074134
-0.00472446
-0.000187695
0.00590482
0.0130761
0.0209217
0.0289624
0.0368559
0.0444933
0.0518238
0.0589149
0.0659622
0.0731061
0.0802279
0.0871294
0.0933806
0.098391
0.101841
0.103604
0.103772
0.10274
0.100859
0.0984839
0.095712
0.0926238
0.0891732
0.0856904
0.0826776
0.080598
0.079515
0.0789783
0.077892
0.0749388
0.0689636
0.0594727
0.0469927
0.0328417
0.0186913
0.00605038
-0.00408954
-0.0115012
-0.0164911
-0.0195222
-0.0211011
-0.0216739
-0.0215539
-0.0210495
-0.0204066
-0.0199541
-0.0199514
-0.0206269
-0.0219655
-0.0238323
-0.0259247
-0.0278767
-0.029311
-0.0300736
-0.0302463
-0.0300778
-0.0298237
-0.0297237
-0.0298175
-0.0301176
-0.0305927
-0.0315653
-0.0338234
-0.0387105
-0.0477785
-0.0623543
-0.0831692
-0.109668
-0.139243
-0.166979
-0.185667
-0.186213
-0.158528
-0.0928995
0.0176189
0.174352
0.369938
0.586388
0.795381
0.962391
1.05421
1.04836
0.940695
0.748572
0.507103
0.259957
0.0469959
-0.105663
-0.190736
-0.217858
-0.206988
-0.179873
-0.153103
-0.134993
-0.126586
-0.124706
-0.125327
-0.12569
-0.124847
-0.123298
-0.121912
-0.121281
-0.121411
-0.122037
-0.122764
-0.123325
-0.123574
-0.123626
-0.123628
-0.123623
-0.12356
-0.123383
-0.12294
-0.122232
-0.121468
-0.120952
-0.120913
-0.121443
-0.122327
-0.123122
-0.12331
-0.12253
-0.120668
-0.117914
-0.114678
-0.111459
-0.108585
-0.106262
-0.104475
-0.103089
-0.101957
-0.100973
-0.100141
-0.099562
-0.099263
-0.0993633
-0.0998934
-0.100747
-0.101843
-0.103087
-0.10422
-0.104955
-0.104982
-0.104017
-0.101943
-0.098938
-0.0953983
-0.0919049
-0.0890187
-0.0870695
-0.0862018
-0.0863193
-0.0872175
-0.0886382
-0.0903801
-0.092286
-0.0941592
-0.0958317
-0.0971872
-0.098137
-0.0987618
-0.0992459
-0.0998432
-0.100834
-0.102434
-0.104673
-0.107479
-0.110661
-0.113825
-0.116461
-0.117937
-0.117527
-0.114593
-0.108541
-0.0991515
-0.0866405
-0.0715513
-0.0547945
-0.0373897
-0.0203844
-0.00454436
0.00970048
0.0222511
0.0333228
0.0434217
0.0530386
0.0625624
0.0722048
0.0818402
0.0911633
0.0997457
0.107144
0.113126
0.117634
0.120837
0.123018
0.124409
0.125275
0.125749
0.125873
0.12576
0.125545
0.125368
0.12532
0.125329
0.125318
0.125084
0.124456
0.123345
0.121841
0.120009
0.118088
0.116224
0.114536
0.113092
0.111782
0.110451
0.108944
0.106998
0.104454
0.10115
0.097081
0.0923767
0.0872435
0.0820281
0.0771253
0.0728419
0.0693662
0.066688
0.0647168
0.0632425
0.0620702
0.0610735
0.0601497
0.0592117
0.0580509
0.0565487
0.0545475
0.052004
0.0490158
0.0458177
0.0425807
0.0394779
0.036566
0.0337506
0.030903
0.027877
0.0245184
0.0208503
0.0169701
0.0130618
0.00941834
0.00633567
0.00403356
0.00265526
0.00210536
0.00212779
0.00231081
0.00221947
0.00144365
-0.00026956
-0.00288335
-0.00617585
-0.00968807
-0.0128339
-0.0151442
-0.0164143
-0.0165677
-0.0158945
-0.0148277
-0.013906
-0.0135679
-0.0140078
-0.0152832
-0.0173189
-0.0198736
-0.0227075
-0.0256601
-0.0285792
-0.0312672
-0.0335155
-0.0350849
-0.0357313
-0.0352618
-0.033796
-0.031527
-0.0289102
-0.0264778
-0.0245902
-0.023451
-0.0228596
-0.0223496
-0.0212373
-0.0189041
-0.0148615
-0.00901874
-0.00150341
0.00716066
0.0162373
0.0249273
0.0326726
0.0390817
0.0442343
0.0485828
0.0528285
0.0576468
0.0633745
0.0698807
0.0765355
0.082438
0.0867654
0.0889023
0.0887232
0.086482
0.0826926
0.0779635
0.0729229
0.0681734
0.0643748
0.0622918
0.0626037
0.0655315
0.0705055
0.0761025
0.0802189
0.080695
0.0759367
0.0655296
0.0502756
0.0320199
0.0128772
-0.00526258
-0.0212113
-0.0344952
-0.0451076
-0.0532355
-0.059085
-0.0627811
-0.0645012
-0.0645359
-0.0632495
-0.0610532
-0.0584072
-0.0557252
-0.0533012
-0.0514992
-0.0505773
-0.0506859
-0.0518307
-0.0537498
-0.0559345
-0.0577233
-0.0585801
-0.0581811
-0.0565478
-0.0541582
-0.0516295
-0.04969
-0.0489833
-0.0501621
-0.0540721
-0.0618285
-0.07463
-0.0935925
-0.11908
-0.149958
-0.183119
-0.213013
-0.231994
-0.231259
-0.201765
-0.135245
-0.0256026
0.129165
0.324668
0.547955
0.77642
0.979244
1.12224
1.17574
1.12351
0.969255
0.737621
0.468778
0.207888
-0.00695795
-0.153726
-0.229649
-0.248103
-0.231072
-0.200586
-0.172631
-0.154612
-0.14697
-0.146407
-0.148864
-0.151499
-0.153048
-0.153637
-0.153804
-0.153912
-0.154034
-0.15419
-0.15432
-0.154433
-0.154545
-0.154704
-0.154948
-0.155253
-0.155519
-0.155623
-0.155417
-0.154774
-0.153598
-0.151882
-0.149649
-0.147035
-0.144051
-0.140847
-0.137599
-0.13451
-0.131734
-0.129319
-0.127207
-0.125147
-0.12291
-0.12041
-0.117822
-0.115493
-0.113861
-0.113196
-0.113425
-0.114241
-0.115186
-0.115801
-0.115986
-0.115956
-0.116092
-0.116781
-0.118196
-0.120177
-0.122251
-0.123811
-0.124411
-0.123861
-0.122273
-0.11999
-0.117381
-0.114763
-0.11228
-0.109904
-0.107598
-0.105268
-0.102877
-0.100468
-0.0980728
-0.0957578
-0.0937327
-0.0921246
-0.0911778
-0.0911774
-0.092319
-0.0947938
-0.0985545
-0.10339
-0.108886
-0.114414
-0.119246
-0.122643
-0.123993
-0.12275
-0.118612
-0.111465
-0.101483
-0.0890153
-0.074677
-0.0593251
-0.0438201
-0.0290925
-0.0160326
-0.00508361
0.00352388
0.00999479
0.0149346
0.0191708
0.0236979
0.0292074
0.0361747
0.0447053
0.0544094
0.064589
0.074526
0.0835537
0.0912118
0.0973429
0.102066
0.105595
0.108166
0.109928
0.110965
0.111318
0.110987
0.110144
0.108973
0.107701
0.106703
0.106125
0.106137
0.106698
0.107652
0.10872
0.1095
0.109716
0.109238
0.10797
0.106009
0.103589
0.100842
0.0979571
0.095073
0.0924208
0.0901164
0.0882201
0.0866868
0.0853032
0.0837923
0.0818022
0.0791428
0.0757503
0.0717614
0.0675012
0.0632343
0.0592492
0.0556751
0.0524824
0.0495938
0.0468789
0.0442717
0.0418403
0.0396162
0.0377192
0.0360603
0.0345153
0.0329273
0.0310885
0.0289841
0.0266012
0.0242316
0.0221249
0.0204842
0.0194059
0.0187426
0.0181251
0.0170996
0.0152267
0.0123066
0.00832468
0.00359349
-0.00138161
-0.00603231
-0.00985101
-0.0125435
-0.0139776
-0.0142832
-0.0137406
-0.012704
-0.01161
-0.0107652
-0.0104415
-0.0107791
-0.0117493
-0.0131634
-0.0146789
-0.0159937
-0.0167802
-0.0169353
-0.0165285
-0.0159028
-0.0153813
-0.0153026
-0.0157969
-0.0168364
-0.0181425
-0.0194062
-0.0202938
-0.020661
-0.0204618
-0.0197165
-0.0186295
-0.0172347
-0.0154367
-0.0129834
-0.00941119
-0.00428015
0.00264797
0.0112046
0.0208433
0.030704
0.0398389
0.0474955
0.053258
0.0571076
0.0592564
0.0602144
0.0603849
0.0602566
0.0604018
0.0613336
0.0635568
0.0674169
0.0727335
0.0788736
0.084698
0.0888136
0.0900765
0.0878456
0.0822203
0.0740238
0.0646344
0.0555513
0.0482053
0.0437212
0.0427868
0.0455147
0.0512919
0.0587185
0.0657112
0.0700764
0.069982
0.0644425
0.0536415
0.0388437
0.0218675
0.00469971
-0.0111154
-0.0247413
-0.0357915
-0.044362
-0.0506921
-0.055135
-0.0580972
-0.0601987
-0.0618939
-0.0635838
-0.0654155
-0.0672602
-0.0688143
-0.0697341
-0.0698545
-0.0692533
-0.0682006
-0.067038
-0.065934
-0.0650084
-0.064132
-0.0631445
-0.0620295
-0.06106
-0.0608604
-0.0623444
-0.0665987
-0.0747019
-0.0875815
-0.105815
-0.129443
-0.157687
-0.188492
-0.217907
-0.240103
-0.247681
-0.232469
-0.18623
-0.10191
0.0247446
0.193079
0.395091
0.613778
0.822878
0.989962
1.08308
1.07954
0.973775
0.781271
0.535889
0.281129
0.0581782
-0.104733
-0.198045
-0.229942
-0.22012
-0.191156
-0.161256
-0.140478
-0.131082
-0.130589
-0.134777
-0.140128
-0.144712
-0.147999
-0.150228
-0.151766
-0.152841
-0.153683
-0.154267
-0.154547
-0.154237
-0.153064
-0.150854
-0.147646
-0.143679
-0.139373
-0.135158
-0.131392
-0.1282
-0.125694
-0.123817
-0.122563
-0.121711
-0.121008
-0.120155
-0.11876
-0.116656
-0.113847
-0.110568
-0.107287
-0.104491
-0.102626
-0.10188
-0.102112
-0.103038
-0.104139
-0.105153
-0.105902
-0.106483
-0.107045
-0.1078
-0.108767
-0.10971
-0.110295
-0.110159
-0.109036
-0.106804
-0.10358
-0.0997131
-0.0955875
-0.0916489
-0.0882799
-0.0857103
-0.0840195
-0.0831266
-0.0828207
-0.0829067
-0.0831766
-0.0835117
-0.0838478
-0.0840974
-0.0842788
-0.0843104
-0.0842745
-0.084229
-0.0843282
-0.0847707
-0.0857313
-0.0873295
-0.0895858
-0.0922872
-0.0950351
-0.0974478
-0.0989741
-0.0992725
-0.0982118
-0.0956955
-0.0917444
-0.0863679
-0.0794463
-0.0709295
-0.0609307
-0.0498995
-0.0385844
-0.027984
-0.0189145
-0.011845
-0.006688
-0.00273781
0.000941365
0.00523601
0.0106837
0.0173491
0.0248925
0.0327256
0.0404119
0.0475625
0.0541897
0.0604583
0.0666293
0.0729305
0.0794716
0.0861134
0.0925407
0.0982551
0.10261
0.105047
0.10517
0.102966
0.0987668
0.0933644
0.0877377
0.0829134
0.0796755
0.0782725
0.0785613
0.0800214
0.0820117
0.0839914
0.0856328
0.0868258
0.0874194
0.0873586
0.0863738
0.0843411
0.0812257
0.0771337
0.0725197
0.0678715
0.063641
0.0601605
0.0575425
0.0556779
0.0543108
0.053079
0.0515439
0.0494043
0.0464974
0.0428284
0.03865
0.0343395
0.0302429
0.0266307
0.0236076
0.0211598
0.0192033
0.0176434
0.0164862
0.0157711
0.0154741
0.0154093
0.0151232
0.0141628
0.0120013
0.00839764
0.00342877
-0.00245202
-0.00849316
-0.0139124
-0.0180889
-0.0207644
-0.0220573
-0.0224652
-0.0224811
-0.0224513
-0.0225043
-0.0225412
-0.0223565
-0.0219682
-0.0214498
-0.0210795
-0.0210932
-0.0216327
-0.0225719
-0.0238052
-0.0252667
-0.0269894
-0.0291235
-0.0316838
-0.0345133
-0.0371167
-0.038873
-0.0393153
-0.0384124
-0.0364999
-0.0341948
-0.0321486
-0.0306541
-0.0295702
-0.0284305
-0.0266526
-0.02386
-0.0200794
-0.0157133
-0.0111391
-0.00669342
-0.00232246
0.00235233
0.00780636
0.0142615
0.0216655
0.0295088
0.0371168
0.0438748
0.0494019
0.053682
0.0569765
0.0594617
0.0611892
0.0620854
0.0619923
0.0608895
0.0590611
0.0569592
0.055162
0.0540486
0.0536089
0.0534609
0.0531936
0.0526394
0.0520486
0.0519945
0.0529125
0.0547031
0.0564272
0.0565165
0.0532123
0.0452626
0.0324655
0.0157639
-0.00287321
-0.0210289
-0.0366223
-0.0482017
-0.0553408
-0.0585272
-0.058852
-0.0577364
-0.0564439
-0.0557355
-0.0558561
-0.0565997
-0.0575117
-0.0581556
-0.0582965
-0.0579309
-0.0572073
-0.056357
-0.0555152
-0.0548909
-0.0545438
-0.0544626
-0.0545309
-0.0545537
-0.0543276
-0.0537241
-0.0530441
-0.0532399
-0.0558952
-0.0629926
-0.0763614
-0.0970853
-0.124907
-0.15767
-0.191034
-0.21858
-0.23227
-0.223076
-0.181696
-0.100138
0.026099
0.195426
0.397524
0.611934
0.809396
0.956647
1.02417
0.994607
0.869031
0.668376
0.428565
0.191057
-0.00831997
-0.147819
-0.223191
-0.245206
-0.233112
-0.206922
-0.181514
-0.164306
-0.156086
-0.153874
-0.153823
-0.153026
-0.150481
-0.146508
-0.141959
-0.137645
-0.133987
-0.131183
-0.12929
-0.128342
-0.128368
-0.129317
-0.13102
-0.13302
-0.134785
-0.135857
-0.135765
-0.134304
-0.131439
-0.127371
-0.122448
-0.117244
-0.11254
-0.109087
-0.107563
-0.108398
-0.111498
-0.116308
-0.121887
-0.12703
-0.130569
-0.131482
-0.129341
-0.124308
-0.117185
-0.109203
-0.101766
-0.0960705
-0.092739
-0.0917682
-0.0925307
-0.0941591
-0.095854
-0.0971647
-0.0980527
-0.0986757
-0.0992051
-0.099519
-0.0992834
-0.0980931
-0.0958479
-0.0928503
-0.0898896
-0.0878872
-0.0874001
-0.0884966
-0.0905921
-0.0929384
-0.0949417
-0.096429
-0.0977239
-0.0993008
-0.101534
-0.104336
-0.107153
-0.109294
-0.110284
-0.11012
-0.109446
-0.109189
-0.110318
-0.113344
-0.11808
-0.123693
-0.128889
-0.132375
-0.133132
-0.130765
-0.125423
-0.117784
-0.108695
-0.0990063
-0.0894052
-0.0804079
-0.0721886
-0.064543
-0.0569918
-0.0488302
-0.0393739
-0.0281973
-0.0153887
-0.00155795
0.0122631
0.0250956
0.0363565
0.046039
0.0547606
0.0632637
0.0720097
0.0809065
0.0893488
0.0965428
0.101956
0.10538
0.107105
0.107796
0.10802
0.108137
0.108226
0.108334
0.10853
0.108979
0.10994
0.111467
0.113458
0.11549
0.117066
0.117702
0.117127
0.115282
0.112398
0.108811
0.104826
0.100766
0.0967512
0.0929329
0.0894441
0.0864481
0.0839695
0.0821207
0.0808412
0.0798338
0.0787482
0.0771669
0.0747567
0.0714355
0.0674201
0.0630976
0.0590377
0.0557949
0.0535859
0.0524863
0.0521874
0.0522426
0.0522197
0.0518095
0.0508232
0.0492862
0.0473557
0.0450202
0.0424419
0.0396048
0.0365286
0.0333609
0.0303734
0.0279174
0.0262737
0.0255693
0.0254979
0.0255695
0.0251343
0.0237001
0.021154
0.0178889
0.0145353
0.0117472
0.00998776
0.00924897
0.00922219
0.00943713
0.00953081
0.00942273
0.0092651
0.00924367
0.00948614
0.00990488
0.0101626
0.00988628
0.00883032
0.00695022
0.00452813
0.00193997
-0.000545104
-0.00274965
-0.00467633
-0.00647718
-0.00819608
-0.0097563
-0.0109587
-0.0115766
-0.0113881
-0.0103623
-0.00865322
-0.00655574
-0.00435899
-0.00228445
-0.000395385
0.00153371
0.00394739
0.00740056
0.0123465
0.0190435
0.0272726
0.0365136
0.046053
0.0552928
0.0637561
0.0713585
0.0782546
0.0845839
0.0904471
0.0956932
0.0999512
0.10277
0.103724
0.102706
0.099792
0.0954407
0.0902638
0.0849675
0.0800066
0.0757486
0.0724476
0.0703781
0.069901
0.0715177
0.0754482
0.0814086
0.0882839
0.0942916
0.0972529
0.0952635
0.0873476
0.0736615
0.0555925
0.0353338
0.015169
-0.00290332
-0.0176112
-0.0284042
-0.0353812
-0.0391183
-0.0403329
-0.0398881
-0.0385107
-0.0368622
-0.035235
-0.0338075
-0.0326047
-0.0315769
-0.0306921
-0.0299906
-0.0295603
-0.029458
-0.0295381
-0.0296266
-0.0295041
-0.0290679
-0.0285374
-0.0285068
-0.0299757
-0.0343182
-0.0428012
-0.0564631
-0.0757358
-0.100509
-0.129827
-0.161863
-0.193854
-0.222183
-0.242749
-0.251702
-0.246307
-0.225363
-0.189154
-0.138752
-0.0742439
0.00677491
0.109493
0.23988
0.400724
0.586827
0.781572
0.957045
1.07934
1.11783
1.05567
0.897035
0.667915
0.40941
0.166058
-0.0265574
-0.150431
-0.207005
-0.212517
-0.18973
-0.159478
-0.135291
-0.122228
-0.119021
-0.121627
-0.125955
-0.129461
-0.13113
-0.131099
-0.12975
-0.127457
-0.124502
-0.121209
-0.117926
-0.115023
-0.112734
-0.11126
-0.110582
-0.110657
-0.111164
-0.111942
-0.112666
-0.113102
-0.113105
-0.112686
-0.111948
-0.111084
-0.110231
-0.109326
-0.108256
-0.106858
-0.105
-0.102672
-0.100092
-0.0974203
-0.0949022
-0.0927166
-0.09096
-0.089764
-0.089209
-0.0893045
-0.0899631
-0.0909375
-0.0918816
-0.0924477
-0.0925819
-0.0922756
-0.0918576
-0.0916196
-0.0918
-0.0924101
-0.0933066
-0.0942777
-0.0950724
-0.0956395
-0.0959157
-0.0958996
-0.0955891
-0.0949364
-0.0938037
-0.0921691
-0.0901013
-0.0878194
-0.085685
-0.0840251
-0.0831955
-0.0833975
-0.0846603
-0.086891
-0.0899471
-0.0935686
-0.0975804
-0.101877
-0.106325
-0.110805
-0.115079
-0.118909
-0.121993
-0.124083
-0.124953
-0.124348
-0.122047
-0.117718
-0.111024
-0.101707
-0.0898338
-0.0758191
-0.0603326
-0.0442
-0.0281846
-0.0128618
0.00158172
0.0151976
0.0281052
0.0404227
0.0522186
0.0632304
0.0731494
0.0817422
0.0887999
0.0944387
0.0989115
0.102672
0.106211
0.109848
0.113608
0.117307
0.120572
0.122995
0.124317
0.124471
0.123624
0.122101
0.120229
0.118253
0.116283
0.114416
0.112606
0.110874
0.109295
0.107998
0.106996
0.106302
0.105784
0.105238
0.104494
0.103307
0.10158
0.0993438
0.0966608
0.0937467
0.0907841
0.0877742
0.0846511
0.081248
0.0772499
0.0726299
0.0674989
0.0622441
0.0573528
0.0533057
0.0504195
0.0486792
0.0478403
0.0475531
0.0474434
0.0471656
0.0465003
0.0452662
0.0434239
0.0409229
0.0378392
0.034444
0.0310992
0.0281088
0.0257405
0.0239803
0.0226515
0.0214811
0.020084
0.0182874
0.0160964
0.0135183
0.010659
0.00757394
0.00431792
0.000933341
-0.00240124
-0.00546052
-0.00791995
-0.00960189
-0.0104339
-0.0105369
-0.0102484
-0.00998857
-0.0101585
-0.0109644
-0.0123997
-0.014267
-0.0162455
-0.017977
-0.0192261
-0.0199518
-0.0203226
-0.0206604
-0.0211734
-0.0221262
-0.0235598
-0.0253052
-0.0271123
-0.0286393
-0.0296681
-0.030044
-0.0298228
-0.0291518
-0.0281153
-0.0267107
-0.0248134
-0.0221954
-0.0186276
-0.0139223
-0.00804399
-0.000990784
0.00714608
0.0160723
0.0253997
0.0345777
0.0429236
0.0498733
0.0551668
0.05897
0.0618235
0.0644343
0.067501
0.0713181
0.0757603
0.0801129
0.0834999
0.0850418
0.0840932
0.08057
0.0748004
0.06765
0.0603118
0.0539565
0.0496834
0.0482663
0.0499987
0.0544188
0.0602931
0.0658744
0.0691404
0.0683684
0.0625612
0.0517278
0.0368571
0.0196381
0.00196593
-0.0144723
-0.0285456
-0.0397573
-0.0481577
-0.0540607
-0.0579561
-0.0604129
-0.0618414
-0.062629
-0.0629344
-0.0627528
-0.0621213
-0.0609513
-0.059283
-0.0572185
-0.0550544
-0.0531355
-0.051734
-0.0508819
-0.0504255
-0.0500865
-0.0495982
-0.0489888
-0.0488118
-0.050319
-0.0554382
-0.0663145
-0.0846807
-0.111224
-0.144931
-0.182343
-0.217304
-0.241144
-0.243045
-0.210852
-0.13295
-0.00153056
0.183615
0.411055
0.65574
0.880804
1.04456
1.11126
1.06236
0.903701
0.665566
0.39453
0.140059
-0.0593482
-0.185245
-0.240671
-0.244241
-0.220609
-0.191235
-0.169054
-0.157773
-0.154981
-0.156282
-0.158049
-0.158706
-0.15829
-0.157669
-0.157412
-0.157492
-0.157617
-0.157412
-0.156787
-0.155892
-0.155062
-0.154655
-0.154871
-0.155624
-0.156481
-0.156971
-0.156637
-0.155266
-0.152993
-0.150229
-0.147349
-0.144741
-0.142479
-0.140443
-0.138407
-0.136138
-0.133592
-0.130755
-0.127883
-0.125084
-0.12242
-0.119884
-0.117248
-0.114322
-0.111045
-0.107468
-0.103972
-0.101098
-0.0993882
-0.0992359
-0.100797
-0.103792
-0.107679
-0.111773
-0.115358
-0.117979
-0.119399
-0.119632
-0.118819
-0.117161
-0.114867
-0.112058
-0.108922
-0.105782
-0.103019
-0.101081
-0.100239
-0.100574
-0.101872
-0.10368
-0.105377
-0.106474
-0.106633
-0.105823
-0.104304
-0.102556
-0.101182
-0.100703
-0.101447
-0.103435
-0.106433
-0.109907
-0.113204
-0.115511
-0.116022
-0.113917
-0.108424
-0.0990291
-0.0854864
-0.0680926
-0.0476047
-0.0253258
-0.00283628
0.0184149
0.0372528
0.0530747
0.0658822
0.0761219
0.0844503
0.0915394
0.0977622
0.103224
0.107782
0.111151
0.113101
0.113582
0.112788
0.111116
0.109129
0.107246
0.105614
0.10411
0.102437
0.100305
0.0977514
0.0951416
0.0929918
0.0919213
0.0921093
0.0933305
0.0948991
0.0959694
0.0958663
0.0943742
0.091786
0.0887763
0.0860024
0.083889
0.0823999
0.081035
0.0792247
0.0763871
0.072339
0.067351
0.0619677
0.0568556
0.0525143
0.0492225
0.046975
0.0456475
0.0449611
0.0446858
0.0446315
0.0444964
0.0440842
0.0431851
0.0416361
0.0394146
0.0366289
0.0334503
0.0301869
0.0270227
0.0241763
0.0216734
0.0194302
0.0173179
0.0151002
0.0125703
0.00962309
0.0062868
0.00261936
-0.00114559
-0.00476062
-0.00802561
-0.0107878
-0.0129806
-0.0145611
-0.015539
-0.015887
-0.0156925
-0.0150218
-0.014089
-0.0131338
-0.0125041
-0.0123957
-0.0128496
-0.0137363
-0.0147904
-0.0156926
-0.0161921
-0.0160933
-0.0153541
-0.0140819
-0.0123962
-0.0105974
-0.00899574
-0.00778545
-0.00726498
-0.00747425
-0.0083976
-0.00984825
-0.011502
-0.0129249
-0.0136688
-0.013337
-0.0114399
-0.00760658
-0.00164986
0.00643019
0.016278
0.0271894
0.0382614
0.0485536
0.0573782
0.064387
0.0697606
0.073905
0.077308
0.0803565
0.0831692
0.0856568
0.0876022
0.0887133
0.0888347
0.0877642
0.0855488
0.0824542
0.0790832
0.0762525
0.0749864
0.075973
0.0792386
0.0838817
0.088219
0.0902386
0.0883117
0.0817622
0.0710094
0.0575001
0.043099
0.0294998
0.0176295
0.00759122
-0.00109104
-0.00907664
-0.0167985
-0.024249
-0.0310519
-0.0366738
-0.0408122
-0.0433906
-0.0447064
-0.0452904
-0.0456721
-0.0461505
-0.0468078
-0.0475011
-0.0479684
-0.0480047
-0.0474342
-0.0462028
-0.0442634
-0.0417092
-0.0388035
-0.0362159
-0.0353993
-0.038476
-0.0478162
-0.0654871
-0.0925106
-0.127791
-0.167265
-0.203671
-0.226648
-0.223498
-0.180858
-0.0876319
0.0610674
0.259834
0.490115
0.720443
0.911129
1.02362
1.03131
0.928685
0.734427
0.487101
0.234146
0.0184793
-0.132588
-0.212518
-0.23289
-0.215683
-0.184087
-0.155351
-0.137697
-0.131655
-0.133434
-0.138348
-0.142956
-0.145664
-0.146371
-0.145736
-0.144351
-0.142714
-0.141187
-0.14005
-0.139358
-0.139163
-0.139172
-0.138983
-0.138185
-0.136546
-0.134003
-0.130846
-0.1276
-0.124814
-0.123017
-0.122458
-0.123081
-0.124496
-0.126178
-0.12746
-0.127893
-0.12725
-0.125642
-0.123396
-0.120871
-0.118265
-0.115629
-0.112756
-0.109527
-0.105936
-0.102266
-0.0988847
-0.0959835
-0.0935971
-0.0914472
-0.0890915
-0.0862721
-0.0830511
-0.079963
-0.0778329
-0.077274
-0.0785871
-0.0814981
-0.085279
-0.089006
-0.0918899
-0.0934891
-0.0937246
-0.092767
-0.0909761
-0.0887951
-0.0865955
-0.0847368
-0.0835919
-0.0833563
-0.0840338
-0.0854354
-0.0870074
-0.0883354
-0.0890376
-0.0889574
-0.0883199
-0.087609
-0.087416
-0.0882342
-0.0902831
-0.0933945
-0.0969891
-0.100193
-0.102046
-0.101639
-0.0983117
-0.0916924
-0.0817582
-0.0687985
-0.053414
-0.0363847
-0.0187951
-0.00174694
0.0139072
0.0277019
0.0396049
0.0499956
0.0593596
0.0680732
0.076124
0.0831185
0.088432
0.0915832
0.0924469
0.0914024
0.0893025
0.0870415
0.0853884
0.0845975
0.0844237
0.0843779
0.0838848
0.0826898
0.0808984
0.0790463
0.0777108
0.0772917
0.0779002
0.0791874
0.0804775
0.0809185
0.0797968
0.076741
0.0718521
0.065602
0.0588606
0.0525101
0.0473168
0.0435961
0.041269
0.040032
0.0393909
0.038955
0.0384888
0.0378634
0.0369876
0.035613
0.0334274
0.0300748
0.0254987
0.0198518
0.0137557
0.00809025
0.00371925
0.00120346
0.000575521
0.00134104
0.00262451
0.00345881
0.00305468
0.00118459
-0.00203847
-0.00606385
-0.0102196
-0.0139097
-0.0167951
-0.0188199
-0.0201797
-0.0211689
-0.0220355
-0.0228986
-0.0237795
-0.024454
-0.0247634
-0.0244601
-0.0235204
-0.0219883
-0.0201194
-0.0183526
-0.0171486
-0.0169315
-0.0179177
-0.0200014
-0.0228335
-0.0258254
-0.028331
-0.0299314
-0.0304155
-0.0300106
-0.0292417
-0.0287095
-0.0288382
-0.0299157
-0.0318299
-0.0342566
-0.0368242
-0.039065
-0.0405714
-0.0409778
-0.0397372
-0.0363982
-0.0306977
-0.0227506
-0.0132189
-0.00314561
0.00636365
0.0145698
0.0213633
0.027301
0.0332596
0.0400699
0.048086
0.0569271
0.0655045
0.0725046
0.0767135
0.0775278
0.0749882
0.0697697
0.0629377
0.0556241
0.0487727
0.0429213
0.0385383
0.0358876
0.0352042
0.0364793
0.0393546
0.0428695
0.0456754
0.046317
0.0434944
0.036577
0.0258683
0.0124573
-0.00199206
-0.0158532
-0.0278602
-0.0373829
-0.0443948
-0.0493383
-0.05289
-0.0557871
-0.0585082
-0.0612688
-0.0639543
-0.0662722
-0.0679204
-0.0687159
-0.0687362
-0.0682576
-0.0676897
-0.0673286
-0.0671566
-0.0668842
-0.0660078
-0.0641392
-0.0612681
-0.0580336
-0.0560057
-0.057472
-0.0649899
-0.0806236
-0.105341
-0.137871
-0.174069
-0.206857
-0.226563
-0.221711
-0.180616
-0.0936481
0.0435413
0.22671
0.440408
0.657732
0.843663
0.962548
0.987651
0.909613
0.740576
0.511935
0.265929
0.0440617
-0.12359
-0.224517
-0.263597
-0.257721
-0.228046
-0.193165
-0.164695
-0.146955
-0.138898
-0.136934
-0.13721
-0.137167
-0.136048
-0.134309
-0.133009
-0.132942
-0.134329
-0.136818
-0.139533
-0.141511
-0.142132
-0.14117
-0.138896
-0.135728
-0.132063
-0.128299
-0.124757
-0.121773
-0.119616
-0.118415
-0.118074
-0.118012
-0.117614
-0.116261
-0.113777
-0.110369
-0.106578
-0.103127
-0.100488
-0.0989208
-0.0982672
-0.0982727
-0.0986617
-0.0992986
-0.10011
-0.101116
-0.102316
-0.103698
-0.105149
-0.10651
-0.107504
-0.107753
-0.106887
-0.104721
-0.101337
-0.0971074
-0.0925968
-0.0885111
-0.085306
-0.0831541
-0.0818753
-0.0811956
-0.0810098
-0.0812542
-0.0821433
-0.0837867
-0.0860745
-0.0885956
-0.0909134
-0.09253
-0.0933494
-0.0936061
-0.093791
-0.094525
-0.096307
-0.0992632
-0.103245
-0.107769
-0.112236
-0.116101
-0.118989
-0.120856
-0.121894
-0.122332
-0.122118
-0.120909
-0.118084
-0.112941
-0.104978
-0.094317
-0.0816525
-0.0681147
-0.0548893
-0.0429127
-0.0324546
-0.0232442
-0.0144581
-0.00528818
0.00483294
0.0159003
0.0273002
0.0379677
0.0469714
0.0538043
0.0586812
0.0625911
0.066748
0.0722506
0.0794955
0.0882155
0.0974559
0.106017
0.11284
0.117414
0.119752
0.120361
0.119979
0.119419
0.119189
0.11956
0.120493
0.121676
0.122449
0.122334
0.120914
0.118096
0.1141
0.109501
0.10489
0.100787
0.0975027
0.0950819
0.0933832
0.0921302
0.0911358
0.0902517
0.0894371
0.0887122
0.088132
0.0876009
0.0870353
0.0862043
0.0848643
0.0827663
0.0799168
0.0764064
0.0725315
0.068548
0.064761
0.0612477
0.0578712
0.0543774
0.0505731
0.0462711
0.041632
0.0370428
0.0331252
0.0303877
0.0291247
0.0292083
0.0301654
0.0312112
0.0317326
0.0314348
0.0304697
0.0293576
0.0286274
0.028562
0.0290833
0.0297781
0.0300233
0.029463
0.0279867
0.0258679
0.0236661
0.0218001
0.0206785
0.020366
0.0206228
0.0211684
0.0216255
0.0216871
0.0211267
0.019886
0.0180544
0.0158542
0.0136169
0.0117882
0.0106958
0.0104412
0.0108851
0.011691
0.0123705
0.0125535
0.0120079
0.0107975
0.00928308
0.00794944
0.00737205
0.00807665
0.0104209
0.0146991
0.020823
0.028499
0.0371525
0.046019
0.0542845
0.0613124
0.0667261
0.0705787
0.0733056
0.0756256
0.0781801
0.0813784
0.0852373
0.0894065
0.093377
0.0965766
0.0986216
0.0994812
0.0993687
0.098464
0.096814
0.0943057
0.0907258
0.0861955
0.0812623
0.0770928
0.07512
0.0764228
0.0812535
0.0885989
0.0962222
0.101435
0.101885
0.0963016
0.0848474
0.0689875
0.0508389
0.0326068
0.0160638
0.002238
-0.00857111
-0.0164477
-0.0217715
-0.0250978
-0.0269993
-0.0279649
-0.0284308
-0.0286466
-0.0287196
-0.0286821
-0.0284258
-0.0280021
-0.0274878
-0.0269331
-0.0264907
-0.0261236
-0.0256677
-0.0250147
-0.0241291
-0.0231791
-0.0227575
-0.0240569
-0.0286714
-0.0385419
-0.0552948
-0.0796006
-0.110597
-0.145064
-0.176978
-0.197941
-0.198006
-0.16699
-0.0959823
0.0207131
0.183735
0.386917
0.616067
0.848951
1.05714
1.20994
1.28042
1.25188
1.12328
0.91119
0.647221
0.371113
0.121495
-0.0728485
-0.198457
-0.257803
-0.26577
-0.243176
-0.209837
-0.180105
-0.161103
-0.153593
-0.154421
-0.159191
-0.164225
-0.167373
-0.168013
-0.166572
-0.163987
-0.161218
-0.158928
-0.15741
-0.156555
-0.156034
-0.155472
-0.154572
-0.153214
-0.151504
-0.149725
-0.148208
-0.147139
-0.146601
-0.146534
-0.146662
-0.146737
-0.146596
-0.146274
-0.145908
-0.145757
-0.145952
-0.146445
-0.146928
-0.147092
-0.146607
-0.145323
-0.143186
-0.140339
-0.137051
-0.13362
-0.130408
-0.127762
-0.125964
-0.125133
-0.125156
-0.125673
-0.126206
-0.126412
-0.126083
-0.125359
-0.124454
-0.123653
-0.123071
-0.12256
-0.122012
-0.121285
-0.120474
-0.119905
-0.119994
-0.120951
-0.122841
-0.125327
-0.127836
-0.129898
-0.131101
-0.131417
-0.131122
-0.130718
-0.130747
-0.131699
-0.133802
-0.136946
-0.140759
-0.144672
-0.147973
-0.14998
-0.15018
-0.148174
-0.143668
-0.136569
-0.126885
-0.11484
-0.100742
-0.0848795
-0.0677609
-0.0498923
-0.0316052
-0.0133166
0.00457295
0.021794
0.0379471
0.0527015
0.065772
0.0770524
0.0866752
0.0949221
0.102205
0.108787
0.114759
0.1199
0.12373
0.125882
0.126221
0.124978
0.122709
0.120111
0.117861
0.116359
0.115743
0.115805
0.116306
0.116935
0.117374
0.117528
0.117347
0.116866
0.11624
0.115557
0.115015
0.114657
0.114412
0.114162
0.113629
0.112477
0.110452
0.107443
0.103652
0.0994967
0.0954831
0.0920774
0.0894464
0.087406
0.0854283
0.0829732
0.0796198
0.0752788
0.0702128
0.0649749
0.0602113
0.0563058
0.0533906
0.0513394
0.0497905
0.0484635
0.0470442
0.0454612
0.0436639
0.0417775
0.0398089
0.0378168
0.0357715
0.0337266
0.0316902
0.029683
0.0277439
0.0259027
0.0241445
0.0224581
0.0208004
0.0191444
0.0174273
0.0156864
0.013858
0.0119601
0.00990274
0.0076756
0.00539423
0.00328959
0.00173423
0.000942435
0.00101627
0.00167418
0.0025796
0.00312773
0.00299126
0.00215257
0.00094168
-0.000118676
-0.000555495
-7.77423e-5
0.00122644
0.00294716
0.00455267
0.00556124
0.00569086
0.0048444
0.00315016
0.000875431
-0.0015682
-0.00392285
-0.00595967
-0.00752078
-0.00853001
-0.00897388
-0.00896596
-0.00867776
-0.00837319
-0.00827432
-0.00862441
-0.00934228
-0.0100911
-0.0102296
-0.00893212
-0.00546533
0.000581084
0.00907086
0.0192593
0.030065
0.0404316
0.0496074
0.0573135
0.0638765
0.0698718
0.0758361
0.0820052
0.088294
0.0941332
0.0988377
0.101745
0.10244
0.100831
0.0972406
0.0921037
0.0859764
0.0794606
0.0731636
0.067785
0.0640952
0.0627877
0.0641919
0.0680112
0.0730339
0.0774556
0.0793001
0.0768966
0.0695217
0.0575331
0.0422006
0.025277
0.00848713
-0.0067108
-0.0194605
-0.02925
-0.0359739
-0.0398242
-0.0412633
-0.0410843
-0.0402987
-0.0399781
-0.0408985
-0.043465
-0.0474987
-0.0524757
-0.0575911
-0.0620497
-0.0653419
-0.0673101
-0.0679791
-0.0676134
-0.0664817
-0.0648619
-0.0631181
-0.0618511
-0.0619479
-0.0644716
-0.0705056
-0.0808234
-0.0957652
-0.115233
-0.138737
-0.165382
-0.193757
-0.221531
-0.245275
-0.260104
-0.260246
-0.239442
-0.191733
-0.111474
0.00571912
0.161612
0.353127
0.569608
0.790897
0.987871
1.12673
1.17733
1.12249
0.965265
0.730345
0.458589
0.196042
-0.0186383
-0.163469
-0.236448
-0.252048
-0.233189
-0.202493
-0.175892
-0.160329
-0.155536
-0.157539
-0.16184
-0.165353
-0.166935
-0.166771
-0.165592
-0.163991
-0.162305
-0.160834
-0.15976
-0.159156
-0.159052
-0.159299
-0.159549
-0.159444
-0.158715
-0.157211
-0.155041
-0.152522
-0.149988
-0.147682
-0.145703
-0.143892
-0.14187
-0.139285
-0.135921
-0.131876
-0.127616
-0.123708
-0.120773
-0.119113
-0.118515
-0.11842
-0.117953
-0.116255
-0.112881
-0.107877
-0.101846
-0.0957513
-0.090688
-0.087504
-0.086562
-0.0877811
-0.090643
-0.0943742
-0.0982497
-0.101725
-0.104468
-0.106364
-0.107464
-0.107833
-0.107678
-0.107011
-0.105889
-0.104476
-0.102888
-0.101292
-0.0998392
-0.0985445
-0.0973999
-0.0963285
-0.0952509
-0.094261
-0.0934723
-0.0930979
-0.0933429
-0.0942597
-0.0958644
-0.0979665
-0.100376
-0.102956
-0.105609
-0.108209
-0.110564
-0.112337
-0.113035
-0.11208
-0.108782
-0.102667
-0.0935005
-0.0813598
-0.0667629
-0.0506178
-0.0340264
-0.0181179
-0.00380794
0.0083774
0.0184562
0.0268812
0.0343152
0.0413788
0.0484697
0.0556151
0.0626049
0.0691616
0.075116
0.0804199
0.0852084
0.089563
0.0934933
0.0968691
0.0995575
0.101344
0.10215
0.102068
0.101198
0.0996923
0.097713
0.0955117
0.0933388
0.0914437
0.0901146
0.0895499
0.0897736
0.0906117
0.0917491
0.0927175
0.0931137
0.092714
0.0915038
0.089661
0.0875756
0.0855654
0.0838531
0.0824297
0.081126
0.0796465
0.0777361
0.0753649
0.0727287
0.0701182
0.0678792
0.0661295
0.0646882
0.0631152
0.0608163
0.0573653
0.0526543
0.0469131
0.0407286
0.0347967
0.0296471
0.0255962
0.0225478
0.0201813
0.0181175
0.0160911
0.0139476
0.0118305
0.00998982
0.00858908
0.00761555
0.00683654
0.00578491
0.00406998
0.00143547
-0.0020107
-0.00592574
-0.00977895
-0.0130518
-0.0154853
-0.0171127
-0.0182635
-0.0194267
-0.0209207
-0.0228755
-0.025075
-0.0271309
-0.0286407
-0.0292866
-0.0290042
-0.0280462
-0.0267514
-0.0254242
-0.0242915
-0.0234554
-0.0228131
-0.0222867
-0.0217082
-0.0209835
-0.020142
-0.0192063
-0.0183768
-0.0178737
-0.0179185
-0.0186856
-0.0202372
-0.0224548
-0.0251594
-0.0280733
-0.0308926
-0.0333402
-0.0352778
-0.0364777
-0.0368827
-0.0365407
-0.035549
-0.034004
-0.0320391
-0.0297779
-0.0272945
-0.0247525
-0.0222676
-0.0199516
-0.0178365
-0.0157179
-0.013113
-0.00944913
-0.00415324
0.00307286
0.0120087
0.0219444
0.0318205
0.0405605
0.0474928
0.0524362
0.0557808
0.0582828
0.060909
0.0642033
0.0684312
0.0733882
0.078431
0.0828555
0.0860177
0.0874988
0.0872667
0.0855385
0.0826773
0.0791373
0.0752474
0.0713936
0.0680611
0.0659642
0.0659173
0.0684844
0.0736193
0.0803722
0.0870256
0.0914754
0.0918962
0.0873807
0.0781469
0.065406
0.0507506
0.0356544
0.020993
0.00706393
-0.0061854
-0.0187539
-0.0303173
-0.0402805
-0.0480242
-0.0530862
-0.0554691
-0.0556821
-0.0543864
-0.0524788
-0.0506761
-0.0495007
-0.0492335
-0.0500086
-0.0516397
-0.0538889
-0.056409
-0.0588033
-0.0606578
-0.0616212
-0.0614624
-0.0601629
-0.0580581
-0.0558157
-0.0545335
-0.0558043
-0.0613217
-0.0727573
-0.0911635
-0.116469
-0.147247
-0.180372
-0.210746
-0.231665
-0.23568
-0.215188
-0.163328
-0.0746801
0.0536488
0.220742
0.419821
0.636986
0.850476
1.03231
1.15261
1.18636
1.12076
0.96046
0.728276
0.460476
0.197958
-0.0236332
-0.182036
-0.271475
-0.30112
-0.289342
-0.256659
-0.219816
-0.18916
-0.168551
-0.157349
-0.152824
-0.151931
-0.15255
-0.153613
-0.154696
-0.155623
-0.156394
-0.15704
-0.157613
-0.158305
-0.159152
-0.160098
-0.160923
-0.161183
-0.160452
-0.158527
-0.155572
-0.152113
-0.14894
-0.146665
-0.14565
-0.145691
-0.146206
-0.146334
-0.145397
-0.143061
-0.139357
-0.13473
-0.129724
-0.124755
-0.120111
-0.115934
-0.112276
-0.109181
-0.106916
-0.10554
-0.105179
-0.105702
-0.106785
-0.108057
-0.10924
-0.110203
-0.110977
-0.111591
-0.112015
-0.112201
-0.112045
-0.111531
-0.110804
-0.110111
-0.109776
-0.109874
-0.110334
-0.110783
-0.110757
-0.109795
-0.107684
-0.104609
-0.101038
-0.0976734
-0.0951442
-0.0939207
-0.0939562
-0.0948629
-0.0959968
-0.0968208
-0.0971695
-0.0972762
-0.0976887
-0.0989668
-0.101416
-0.104787
-0.108434
-0.111427
-0.112899
-0.112266
-0.109208
-0.103712
-0.0957392
-0.0853116
-0.0725012
-0.0576306
-0.0414579
-0.0250268
-0.0096243
0.00366932
0.0141654
0.0218905
0.0273031
0.031244
0.0344464
0.0374767
0.0406032
0.0438702
0.0472494
0.0506768
0.0540905
0.0574625
0.0608153
0.0640829
0.0673506
0.0707295
0.0742066
0.0776814
0.0809139
0.0835409
0.0852781
0.0859715
0.0858263
0.0853105
0.0849724
0.085114
0.0858835
0.0869864
0.0879741
0.0884069
0.0880853
0.0870609
0.085556
0.0838802
0.08225
0.0806474
0.0789872
0.076898
0.0739726
0.0699434
0.0647838
0.0587536
0.0524115
0.0465122
0.041686
0.0383462
0.0364313
0.0355068
0.0348574
0.0338349
0.0321375
0.0299849
0.0278377
0.0261463
0.0252803
0.0251109
0.0251749
0.0247657
0.0233753
0.0207602
0.0172119
0.0133422
0.00977694
0.00685787
0.00453134
0.00241456
-1.85759e-5
-0.00325856
-0.00734644
-0.011967
-0.0164618
-0.0201511
-0.0225805
-0.0237763
-0.0240901
-0.0241146
-0.0243475
-0.0250849
-0.026236
-0.0274457
-0.0283821
-0.0288378
-0.028812
-0.0284431
-0.027884
-0.0271496
-0.0262166
-0.0249411
-0.0234237
-0.0218998
-0.0208497
-0.020856
-0.0223374
-0.0253336
-0.0294625
-0.0339914
-0.0380507
-0.0409019
-0.0422215
-0.0421499
-0.0412811
-0.0403078
-0.0398066
-0.0399116
-0.0402259
-0.0400514
-0.038683
-0.0356053
-0.0308469
-0.0250459
-0.0191896
-0.0142467
-0.010606
-0.00807136
-0.00581668
-0.00288102
0.00152134
0.00748736
0.0145289
0.0217691
0.0283303
0.033737
0.0380496
0.0416577
0.0450634
0.0485711
0.0522152
0.0556791
0.058615
0.0607229
0.0618047
0.061909
0.0611835
0.0597484
0.0576859
0.0551162
0.0521854
0.04931
0.0470793
0.0461412
0.0468439
0.048885
0.0510816
0.0518016
0.0493331
0.0425591
0.0315571
0.0175398
0.00245582
-0.0115802
-0.0231224
-0.0316477
-0.0374834
-0.041345
-0.0439975
-0.0459316
-0.0475064
-0.0491
-0.0511541
-0.054133
-0.0583729
-0.0636891
-0.0693499
-0.0742693
-0.0774272
-0.0783671
-0.0772569
-0.0748
-0.0717312
-0.0685717
-0.0653988
-0.0620366
-0.0584654
-0.0552789
-0.0537794
-0.0558349
-0.063278
-0.0775386
-0.0990736
-0.127191
-0.15998
-0.194553
-0.227334
-0.254341
-0.271302
-0.273575
-0.255788
-0.211632
-0.134345
-0.0181304
0.138697
0.330587
0.5418
0.746357
0.911619
1.00579
1.00674
0.909822
0.730507
0.501201
0.262665
0.0528127
-0.102685
-0.194952
-0.230997
-0.227791
-0.204962
-0.178422
-0.157353
-0.144269
-0.137554
-0.134322
-0.132347
-0.130932
-0.130339
-0.13113
-0.133235
-0.136
-0.138338
-0.139275
-0.138356
-0.135751
-0.132144
-0.128447
-0.12538
-0.123139
-0.121487
-0.11984
-0.117577
-0.114404
-0.110439
-0.10631
-0.102884
-0.101078
-0.1013
-0.10343
-0.106804
-0.11038
-0.113207
-0.114687
-0.114734
-0.113692
-0.11209
-0.11044
-0.10907
-0.107898
-0.106617
-0.104946
-0.102601
-0.0994778
-0.0956183
-0.0912638
-0.0867223
-0.0823457
-0.0784918
-0.0754561
-0.0734794
-0.0727095
-0.0731376
-0.074628
-0.076957
-0.0797601
-0.0826392
-0.085153
-0.0869981
-0.0880195
-0.0881883
-0.0876902
-0.0867992
-0.0857347
-0.0846224
-0.083561
-0.0826431
-0.0820111
-0.0819034
-0.0825605
-0.0841641
-0.0867295
-0.0900852
-0.0938626
-0.0977231
-0.101437
-0.104953
-0.108285
-0.111496
-0.114437
-0.116682
-0.117609
-0.116528
-0.113081
-0.10718
-0.0990838
-0.0893561
-0.0784912
-0.0669663
-0.0551266
-0.0431659
-0.0312523
-0.0194975
-0.0078487
0.00389662
0.0160327
0.028766
0.0420818
0.0556424
0.0687806
0.0807824
0.0910704
0.0994548
0.10596
0.110893
0.114537
0.117172
0.119008
0.12015
0.120838
0.121233
0.12146
0.12158
0.121398
0.120686
0.119261
0.117119
0.114452
0.111662
0.109176
0.107276
0.105999
0.105139
0.104377
0.103292
0.101629
0.0992726
0.0962494
0.092645
0.0886954
0.0846069
0.0806512
0.0770733
0.0741153
0.0719509
0.0706292
0.0700156
0.0698604
0.0697488
0.0692248
0.067978
0.0659778
0.063307
0.0603641
0.0576108
0.0553162
0.0536496
0.0525185
0.0516459
0.0506351
0.0491751
0.0469481
0.0438502
0.0400036
0.035761
0.0316234
0.0281266
0.0256355
0.0242672
0.0237214
0.0235776
0.0231342
0.02201
0.0200554
0.0174343
0.0146594
0.0123811
0.011087
0.0110982
0.0123754
0.0144747
0.0169201
0.0190867
0.0205478
0.0211698
0.0210711
0.0204827
0.0198391
0.0193501
0.0191344
0.0191158
0.0190024
0.0184557
0.017329
0.0156639
0.0136561
0.0116343
0.0100525
0.00915652
0.00902427
0.00951019
0.0103417
0.0111976
0.011894
0.0124686
0.0132191
0.0147324
0.0175976
0.0223177
0.0290195
0.0373259
0.0465103
0.0557679
0.0643794
0.0721067
0.0789879
0.0853607
0.0914378
0.0972037
0.102196
0.105686
0.107178
0.106393
0.103532
0.0991775
0.0941328
0.0892026
0.08505
0.0822654
0.081283
0.0823875
0.0854938
0.089897
0.0942838
0.0968839
0.095967
0.090369
0.0799103
0.0655777
0.0491493
0.032711
0.0181445
0.00649694
-0.00197344
-0.00780213
-0.0117774
-0.0147229
-0.0172277
-0.0195874
-0.0217646
-0.0236075
-0.0249964
-0.0258998
-0.0263175
-0.0264279
-0.0262966
-0.0259475
-0.0254014
-0.0245885
-0.0234585
-0.0219677
-0.0201534
-0.0180345
-0.0156777
-0.0133006
-0.0112194
-0.00996104
-0.010492
-0.0142424
-0.0228617
-0.037819
-0.0599635
-0.0888112
-0.121759
-0.153626
-0.1768
-0.18155
-0.156943
-0.0923331
0.019943
0.181598
0.384968
0.61093
0.82941
1.0039
1.09946
1.09272
0.979955
0.779845
0.529519
0.274533
0.0561782
-0.0990168
-0.184116
-0.209695
-0.196703
-0.167777
-0.140205
-0.122715
-0.116599
-0.118673
-0.124642
-0.130963
-0.135767
-0.138605
-0.139713
-0.139637
-0.138859
-0.137882
-0.137056
-0.136628
-0.136569
-0.136625
-0.136477
-0.135872
-0.134552
-0.132511
-0.129882
-0.126972
-0.124088
-0.121484
-0.119381
-0.117783
-0.11656
-0.115598
-0.114678
-0.113797
-0.112834
-0.111836
-0.110815
-0.109775
-0.10873
-0.107603
-0.106341
-0.104894
-0.103199
-0.101312
-0.0994464
-0.0979462
-0.0972273
-0.0975257
-0.098926
-0.10114
-0.103598
-0.105621
-0.106644
-0.106365
-0.10483
-0.102319
-0.0993123
-0.0962564
-0.0935755
-0.0914863
-0.09007
-0.0893423
-0.0891478
-0.0893434
-0.0896865
-0.0900347
-0.0902697
-0.0903688
-0.090365
-0.090395
-0.0906197
-0.0911912
-0.0923723
-0.0942886
-0.0969489
-0.100227
-0.103871
-0.107546
-0.110938
-0.113807
-0.115945
-0.117237
-0.117528
-0.116481
-0.113715
-0.108798
-0.101436
-0.091552
-0.079509
-0.0658505
-0.0514322
-0.0369707
-0.023105
-0.0100424
0.00220038
0.0138069
0.0249951
0.03594
0.0468503
0.0577595
0.0687323
0.079697
0.0904474
0.100639
0.109805
0.117433
0.123144
0.126818
0.128628
0.128938
0.128259
0.127145
0.125932
0.124833
0.123942
0.123094
0.122202
0.121064
0.119585
0.117647
0.115149
0.112045
0.108432
0.104477
0.100503
0.0969246
0.0940633
0.0921833
0.0912831
0.0911327
0.0913663
0.0915465
0.091282
0.0903516
0.0888179
0.0868293
0.0846478
0.0824398
0.0802641
0.0780038
0.0754856
0.0727048
0.0697343
0.0668081
0.0641418
0.061792
0.0595998
0.0572291
0.0542466
0.0504649
0.0459137
0.0409621
0.0361379
0.0318672
0.0284841
0.0260123
0.0242451
0.0228898
0.0216832
0.0204865
0.0192155
0.0179615
0.0167642
0.0156188
0.0144692
0.013234
0.0118604
0.0102855
0.0084767
0.00647386
0.00446701
0.00261779
0.0011429
0.000120339
-0.000411886
-0.000626938
-0.000764233
-0.00100806
-0.00145028
-0.00203957
-0.00262387
-0.00298452
-0.00299889
-0.00270837
-0.00228913
-0.0019291
-0.00177168
-0.0019761
-0.00248117
-0.00318978
-0.00396246
-0.00472364
-0.00550414
-0.00634457
-0.00726111
-0.0082647
-0.00936775
-0.0104859
-0.0115934
-0.0126277
-0.0136427
-0.0146139
-0.0154463
-0.0159291
-0.0157816
-0.0145368
-0.0117719
-0.00716104
-0.000647299
0.00754247
0.0169653
0.0268744
0.0365488
0.0454514
0.0532682
0.0600349
0.0659086
0.0712894
0.0765881
0.0819994
0.0874505
0.0925702
0.0967318
0.0991552
0.0992279
0.0966267
0.0915854
0.0848437
0.0774835
0.0706845
0.0656152
0.063071
0.0634213
0.0663697
0.070968
0.0757402
0.0789488
0.0790297
0.0749358
0.0664788
0.0542178
0.0394016
0.0237073
0.00867531
-0.00438819
-0.0146778
-0.0219177
-0.0263056
-0.0285241
-0.0295233
-0.0304153
-0.0320737
-0.0350094
-0.0392399
-0.0443353
-0.0495513
-0.0542
-0.0577339
-0.0600046
-0.061093
-0.061286
-0.0607656
-0.0597034
-0.0579322
-0.0552329
-0.0515498
-0.0471074
-0.0425612
-0.0390672
-0.0381025
-0.0413821
-0.0504443
-0.0662869
-0.089125
-0.118071
-0.150859
-0.18366
-0.210938
-0.225807
-0.220698
-0.187849
-0.119947
-0.0111261
0.141024
0.33299
0.552601
0.777655
0.976998
1.11585
1.16403
1.10553
0.945173
0.709518
0.440527
0.184256
-0.0217416
-0.157324
-0.222275
-0.232301
-0.210765
-0.179803
-0.154384
-0.140508
-0.137326
-0.140662
-0.146238
-0.151261
-0.154727
-0.156893
-0.158328
-0.159391
-0.160208
-0.160871
-0.161429
-0.161848
-0.161891
-0.161266
-0.15956
-0.156525
-0.152175
-0.146975
-0.141617
-0.136929
-0.133564
-0.131828
-0.131612
-0.132406
-0.133515
-0.134124
-0.133606
-0.131651
-0.128197
-0.123574
-0.118508
-0.113744
-0.109963
-0.107736
-0.107221
-0.108214
-0.110245
-0.11274
-0.115226
-0.117316
-0.118851
-0.119712
-0.119833
-0.119199
-0.117815
-0.115841
-0.113558
-0.11129
-0.109205
-0.107475
-0.105956
-0.104541
-0.103174
-0.101805
-0.100539
-0.0995331
-0.0987737
-0.0982412
-0.0978422
-0.0974286
-0.0970402
-0.0967659
-0.0967286
-0.0970487
-0.0978381
-0.0990797
-0.100749
-0.102751
-0.10503
-0.107382
-0.109651
-0.111556
-0.1128
-0.113136
-0.112408
-0.110424
-0.107202
-0.102679
-0.0966824
-0.0890759
-0.0796966
-0.0684651
-0.0555398
-0.0413631
-0.0267316
-0.0125485
0.000367062
0.0114362
0.0205297
0.0279475
0.0342802
0.0402036
0.0462123
0.0525509
0.0592809
0.0662624
0.0733942
0.0805419
0.0875465
0.0942108
0.100231
0.105303
0.109276
0.112111
0.113927
0.114907
0.115209
0.114931
0.114033
0.112442
0.110198
0.107359
0.104078
0.100553
0.0969599
0.0934143
0.0899854
0.0866369
0.0834501
0.0804944
0.0778062
0.0754484
0.0733695
0.0714829
0.0696062
0.0675579
0.0652368
0.0625939
0.0596894
0.0566884
0.0537495
0.0510552
0.048764
0.0469191
0.0455914
0.0447713
0.0443471
0.0440912
0.0436976
0.0428996
0.0414357
0.0391778
0.036232
0.0327721
0.0289932
0.0250073
0.0208402
0.0163809
0.0115811
0.0065536
0.00157781
-0.00291489
-0.00658068
-0.0091732
-0.0107481
-0.0115636
-0.0119658
-0.0122662
-0.0127367
-0.0135133
-0.0146858
-0.0162671
-0.0182026
-0.0203209
-0.0222953
-0.0238116
-0.0246126
-0.0245799
-0.0239113
-0.0228793
-0.0218898
-0.0213
-0.0212884
-0.0217566
-0.0224877
-0.0232993
-0.0239898
-0.0246308
-0.0253143
-0.0262583
-0.0276021
-0.0293297
-0.0312523
-0.033108
-0.034501
-0.0350614
-0.03463
-0.0332533
-0.0312249
-0.0289288
-0.0268044
-0.0250956
-0.0237716
-0.0225883
-0.0211512
-0.0192647
-0.0169317
-0.014297
-0.0115723
-0.00881709
-0.00577527
-0.00188462
0.00337437
0.0102964
0.0187876
0.0283159
0.0381629
0.0476301
0.0562921
0.0641497
0.0713465
0.0779052
0.0836715
0.0881352
0.0906437
0.0907195
0.0882611
0.0836616
0.0777745
0.0716678
0.0663805
0.0628437
0.0617835
0.0634079
0.0673256
0.0723771
0.0768053
0.0785483
0.0758986
0.0680201
0.0552001
0.0388071
0.020757
0.00307999
-0.0126619
-0.0256509
-0.0356056
-0.0426665
-0.0473532
-0.0501201
-0.0515898
-0.0523619
-0.0529031
-0.0534952
-0.0542104
-0.0549382
-0.0554883
-0.0557295
-0.0556952
-0.0555821
-0.0555779
-0.0556664
-0.0556573
-0.0551605
-0.0537858
-0.0513227
-0.0481425
-0.0453416
-0.044755
-0.0488272
-0.0599337
-0.0797051
-0.108535
-0.144495
-0.182863
-0.216273
-0.234762
-0.226551
-0.179482
-0.0836588
0.0649687
0.260682
0.48528
0.708238
0.891107
0.996551
0.999108
0.894013
0.700421
0.456766
0.209905
0.00167513
-0.141989
-0.21565
-0.231666
-0.212219
-0.180086
-0.151646
-0.13423
-0.127747
-0.128291
-0.131545
-0.134562
-0.136348
-0.137163
-0.137673
-0.13843
-0.139591
-0.141178
-0.143121
-0.145259
-0.147319
-0.148971
-0.149869
-0.149868
-0.1489
-0.147039
-0.144459
-0.141283
-0.137728
-0.133945
-0.130042
-0.12623
-0.122714
-0.119817
-0.117744
-0.116642
-0.116464
-0.11707
-0.118058
-0.119018
-0.119507
-0.119136
-0.117647
-0.114953
-0.111193
-0.106698
-0.10197
-0.0976498
-0.094324
-0.0923298
-0.091716
-0.0921739
-0.0931913
-0.0943107
-0.0951198
-0.0954744
-0.0954346
-0.095116
-0.0947771
-0.0944747
-0.0943316
-0.0943641
-0.0945828
-0.0949786
-0.0955252
-0.096039
-0.0963196
-0.0961629
-0.0955054
-0.0942784
-0.0925871
-0.0904689
-0.0880159
-0.0852144
-0.0822006
-0.0791915
-0.0765777
-0.0750094
-0.0751863
-0.0775401
-0.0822207
-0.0887792
-0.096462
-0.104083
-0.110433
-0.114349
-0.114889
-0.111485
-0.103917
-0.0922913
-0.0771085
-0.059297
-0.0401666
-0.0212918
-0.00419256
0.00992677
0.0205496
0.0279122
0.0329481
0.0368701
0.0408691
0.0456491
0.0513291
0.0574883
0.0635142
0.0687272
0.0726694
0.0750287
0.0758071
0.0751374
0.0733162
0.070762
0.0679106
0.0653217
0.0634357
0.0625653
0.0628514
0.0642621
0.0665977
0.0695685
0.0728107
0.0758875
0.078302
0.0795538
0.0792078
0.0769883
0.0728631
0.0671237
0.060177
0.0527977
0.0457601
0.0397574
0.0352594
0.0323847
0.0308511
0.0299785
0.0290061
0.0272286
0.024302
0.0203594
0.0158972
0.0115902
0.00798206
0.00529665
0.00338758
0.00185757
0.000269221
-0.00165698
-0.00387042
-0.00610913
-0.00799259
-0.00915419
-0.00949319
-0.00922787
-0.00870353
-0.00848482
-0.00907681
-0.0107523
-0.0135142
-0.0171041
-0.0210544
-0.0248451
-0.0280152
-0.0303271
-0.0317566
-0.0325935
-0.0331956
-0.0339399
-0.0349727
-0.0362565
-0.0375876
-0.0386596
-0.0392639
-0.039385
-0.0391179
-0.0386322
-0.038084
-0.0375664
-0.0371533
-0.036939
-0.0371166
-0.0378986
-0.0393175
-0.0412764
-0.0433902
-0.045066
-0.0457028
-0.0449263
-0.0427411
-0.0396964
-0.0367197
-0.0349405
-0.0352586
-0.0380375
-0.0429854
-0.048973
-0.0543911
-0.0575916
-0.0573085
-0.0529964
-0.0449586
-0.0342336
-0.0220607
-0.00975766
0.00175232
0.0118857
0.020394
0.0272273
0.0324469
0.0362828
0.0391606
0.0416466
0.044382
0.0478205
0.0520052
0.0566123
0.0609299
0.0642295
0.065938
0.0658991
0.0643504
0.0616406
0.0582233
0.0545038
0.0509021
0.0480031
0.0465593
0.0473696
0.0507918
0.0564579
0.0630122
0.0682723
0.0698299
0.0658612
0.0557013
0.0402307
0.0214474
0.00195927
-0.0159321
-0.0306112
-0.0414482
-0.0486837
-0.0529593
-0.0551716
-0.0561643
-0.0566067
-0.0569886
-0.0575364
-0.0583527
-0.0594106
-0.0606527
-0.061997
-0.0634909
-0.0651003
-0.0668187
-0.0683992
-0.0695251
-0.0698984
-0.0693202
-0.0678726
-0.0660757
-0.0649837
-0.0661246
-0.0712747
-0.0821591
-0.100168
-0.125669
-0.157116
-0.190489
-0.21867
-0.231423
-0.216325
-0.160599
-0.0547881
0.103268
0.30445
0.526582
0.736145
0.894814
0.968918
0.939796
0.810091
0.604562
0.363524
0.131341
-0.0557938
-0.178535
-0.236621
-0.244622
-0.224112
-0.19537
-0.171897
-0.158985
-0.155616
-0.157652
-0.160772
-0.162194
-0.160931
-0.157469
-0.152763
-0.147748
-0.143024
-0.138821
-0.134983
-0.131403
-0.128023
-0.12514
-0.123106
-0.122268
-0.122678
-0.123887
-0.125339
-0.126237
-0.126144
-0.125029
-0.123189
-0.12127
-0.119838
-0.11929
-0.119713
-0.120963
-0.122661
-0.124335
-0.125559
-0.126049
-0.125732
-0.124817
-0.123578
-0.122355
-0.121399
-0.120585
-0.119598
-0.117954
-0.115155
-0.110988
-0.105531
-0.0993302
-0.0929982
-0.0873631
-0.0829672
-0.0801249
-0.078815
-0.0787047
-0.0792676
-0.0798713
-0.0799809
-0.0792422
-0.0776259
-0.075421
-0.0732197
-0.0716741
-0.0713219
-0.0723386
-0.0746534
-0.0779063
-0.0816324
-0.0855561
-0.0894388
-0.0932437
-0.0968897
-0.100287
-0.10328
-0.105773
-0.107806
-0.109573
-0.111469
-0.113737
-0.116446
-0.119213
-0.121369
-0.122017
-0.120306
-0.115527
-0.107338
-0.0958463
-0.0814397
-0.0649537
-0.0474921
-0.0303038
-0.0146743
-0.00168557
0.00791802
0.0140988
0.0173682
0.0189155
0.0201313
0.0223985
0.0265592
0.0328782
0.0409999
0.0501636
0.0595334
0.0684857
0.0767217
0.084254
0.0911663
0.0974697
0.103108
0.107774
0.111173
0.113234
0.113945
0.113635
0.112827
0.111999
0.111539
0.111572
0.112004
0.112542
0.112969
0.113115
0.112966
0.112505
0.111829
0.110903
0.109572
0.107677
0.105139
0.102024
0.0985641
0.0951223
0.0920144
0.0893639
0.0869957
0.0845133
0.0814432
0.0774489
0.0724784
0.0667919
0.0610086
0.0557825
0.0517278
0.0491065
0.047888
0.0476913
0.0479548
0.0480318
0.047389
0.0458632
0.0435335
0.040755
0.0380567
0.0358155
0.0342421
0.03322
0.0324806
0.0316504
0.0304766
0.028848
0.0267075
0.0241773
0.0215315
0.0188853
0.0164233
0.0143786
0.012839
0.0119294
0.0115734
0.0117822
0.0125007
0.0136812
0.0152227
0.0170739
0.0191098
0.0211612
0.0229916
0.0243612
0.0250684
0.0249681
0.0239917
0.0221476
0.019566
0.0165728
0.0134025
0.0103756
0.0077851
0.00575829
0.00410989
0.00256389
0.000841544
-0.00124202
-0.00359337
-0.00584848
-0.00749252
-0.00815508
-0.0077375
-0.00645088
-0.00476562
-0.0031795
-0.00192763
-0.000935282
0.000259075
0.00226385
0.00560492
0.0106082
0.0171824
0.0249314
0.0333582
0.041787
0.0497734
0.0570311
0.0634678
0.0692953
0.0747623
0.0802692
0.0860459
0.0920173
0.0977846
0.102598
0.105772
0.106768
0.105525
0.102457
0.0982677
0.0937614
0.0895247
0.0859595
0.083264
0.0816908
0.081574
0.0831174
0.0861386
0.0898643
0.0928641
0.0934718
0.0901997
0.0822807
0.0700371
0.0547025
0.0382537
0.0226536
0.00939403
-0.000735286
-0.00772811
-0.0121242
-0.0147999
-0.0165467
-0.0180644
-0.0197391
-0.0217656
-0.02407
-0.0264201
-0.0285807
-0.0302454
-0.0311983
-0.0313602
-0.0308128
-0.0297565
-0.0284311
-0.0270567
-0.0258074
-0.0246377
-0.023392
-0.0218971
-0.020231
-0.0186807
-0.0179322
-0.0191179
-0.0236869
-0.0331874
-0.0488572
-0.0711969
-0.0994522
-0.131087
-0.16121
-0.182611
-0.186339
-0.162462
-0.101361
0.00419766
0.156416
0.349687
0.568423
0.786725
0.97128
1.08779
1.10998
1.02785
0.852474
0.614503
0.356575
0.121708
-0.058122
-0.168758
-0.214635
-0.213421
-0.187828
-0.157684
-0.135266
-0.124462
-0.123391
-0.127619
-0.132933
-0.136748
-0.138339
-0.138223
-0.137386
-0.136705
-0.136765
-0.137806
-0.139668
-0.141836
-0.143751
-0.144853
-0.144935
-0.144036
-0.142292
-0.139986
-0.137232
-0.134117
-0.130699
-0.127108
-0.123515
-0.12016
-0.117193
-0.114625
-0.112411
-0.110373
-0.108386
-0.106273
-0.103896
-0.1012
-0.0981441
-0.0947926
-0.0913851
-0.0882241
-0.0855997
-0.0837992
-0.0828965
-0.0829129
-0.083767
-0.085401
-0.0877534
-0.0907285
-0.0940674
-0.0974098
-0.100181
-0.101886
-0.102157
-0.10095
-0.0985357
-0.0954599
-0.0922943
-0.0894833
-0.0872035
-0.0855352
-0.0843684
-0.0835989
-0.0831816
-0.08304
-0.0831301
-0.0833917
-0.0837772
-0.0842038
-0.0847223
-0.0855031
-0.0868149
-0.0889173
-0.0920132
-0.0960817
-0.100935
-0.106118
-0.111178
-0.115544
-0.118793
-0.120593
-0.120676
-0.118793
-0.114642
-0.107927
-0.0985682
-0.0867257
-0.0729391
-0.0581635
-0.0435234
-0.0301982
-0.0190403
-0.010339
-0.00381167
0.0013338
0.00611453
0.0114868
0.0180403
0.0259263
0.0349349
0.0447125
0.0548763
0.0650924
0.0752435
0.0850453
0.0942888
0.10266
0.1099
0.115778
0.120321
0.123639
0.12604
0.127838
0.129227
0.130345
0.131154
0.131533
0.131317
0.130283
0.128391
0.125586
0.122063
0.117998
0.113743
0.109652
0.106053
0.103225
0.101314
0.100369
0.100268
0.100918
0.102099
0.103564
0.104975
0.106002
0.106288
0.105661
0.104046
0.101573
0.0984913
0.0950837
0.0916038
0.0882264
0.0850431
0.0821644
0.0795836
0.0774169
0.075624
0.0741697
0.0728192
0.0712092
0.0690145
0.0659084
0.0617764
0.0567447
0.0512095
0.0457118
0.0407713
0.0367811
0.033849
0.0318969
0.0306618
0.0298542
0.0292109
0.0286043
0.0278928
0.0269655
0.0258021
0.02428
0.0224749
0.0203463
0.0179708
0.0154071
0.0126494
0.00970386
0.00670986
0.00385528
0.00145735
-0.000264192
-0.00124222
-0.00177673
-0.00236898
-0.00364711
-0.00595289
-0.00918715
-0.0128509
-0.0161875
-0.0184766
-0.019407
-0.0190209
-0.0177639
-0.016144
-0.0145131
-0.0130919
-0.0118233
-0.0106704
-0.00953531
-0.00854504
-0.00783694
-0.00749923
-0.00747917
-0.00773128
-0.00806627
-0.0083821
-0.00854453
-0.00854366
-0.00828086
-0.00776787
-0.00689612
-0.00570904
-0.00436904
-0.00315849
-0.00244602
-0.00248776
-0.00321128
-0.00424948
-0.00494213
-0.00453225
-0.00245048
0.00164123
0.00769644
0.0153475
0.0239745
0.0329386
0.0416544
0.0497056
0.0568822
0.0632181
0.0689791
0.0745608
0.080243
0.0861604
0.0920747
0.0974787
0.101611
0.103874
0.103862
0.101538
0.0973091
0.0919299
0.0861861
0.0809693
0.0770488
0.0750454
0.0752802
0.0776151
0.0812382
0.0847698
0.0864258
0.0846065
0.078299
0.067483
0.0531547
0.0369648
0.0207697
0.00606584
-0.00615663
-0.0155639
-0.0222736
-0.026598
-0.028932
-0.0298564
-0.0299342
-0.0298087
-0.0301661
-0.0314697
-0.0339127
-0.0373295
-0.04123
-0.044967
-0.0478986
-0.0496465
-0.0499784
-0.049005
-0.0468878
-0.0439575
-0.0407615
-0.0380613
-0.0369525
-0.0385926
-0.0439564
-0.0534757
-0.0670082
-0.0838253
-0.103156
-0.124433
-0.147336
-0.171059
-0.193301
-0.209233
-0.211112
-0.188655
-0.130194
-0.0257814
0.129108
0.329718
0.559156
0.78837
0.980027
1.09663
1.11082
1.01452
0.823272
0.573004
0.310526
0.0801724
-0.0878032
-0.18338
-0.215516
-0.205204
-0.176082
-0.146755
-0.127058
-0.11862
-0.118336
-0.121936
-0.126106
-0.129388
-0.131789
-0.133856
-0.13599
-0.138236
-0.140388
-0.142161
-0.143316
-0.143691
-0.143151
-0.141752
-0.139642
-0.136938
-0.133927
-0.130742
-0.127555
-0.124483
-0.121552
-0.118827
-0.116341
-0.114195
-0.112427
-0.111098
-0.110075
-0.10917
-0.108174
-0.106801
-0.105002
-0.102845
-0.100611
-0.0986489
-0.0972265
-0.0964676
-0.0962777
-0.0963951
-0.0964196
-0.0960359
-0.0950569
-0.0934671
-0.0913877
-0.0890088
-0.0864885
-0.0839116
-0.081351
-0.0788917
-0.0765981
-0.0745916
-0.0729524
-0.0717029
-0.0708712
-0.0703865
-0.070157
-0.070123
-0.0701551
-0.0701497
-0.0700169
-0.0697417
-0.0694352
-0.0693615
-0.0697614
-0.070808
-0.0725911
-0.0748437
-0.0772659
-0.0794838
-0.0811776
-0.0822841
-0.0829104
-0.0833772
-0.0839641
-0.0847678
-0.085646
-0.0860369
-0.0852619
-0.0825019
-0.0771881
-0.0691003
-0.0584511
-0.0458384
-0.0321155
-0.0181467
-0.00476732
0.00751375
0.0183356
0.0276367
0.0354923
0.0421774
0.0480378
0.0534504
0.058743
0.0641592
0.0697139
0.075413
0.0811098
0.0867352
0.0923148
0.0979271
0.103658
0.109415
0.114937
0.119789
0.123552
0.126016
0.127224
0.127544
0.127429
0.127235
0.127118
0.126792
0.125971
0.124345
0.12189
0.118912
0.115944
0.113431
0.111587
0.110193
0.108843
0.106936
0.104176
0.100515
0.096264
0.0918498
0.0876368
0.0837418
0.0800597
0.0763428
0.0724075
0.0683046
0.0643783
0.0610909
0.0589699
0.0581508
0.058429
0.0593704
0.0601722
0.0602354
0.059181
0.0569687
0.0537218
0.0497262
0.0452127
0.0402925
0.0352073
0.0301968
0.025502
0.0214342
0.0181245
0.0154056
0.0129227
0.0101939
0.00681692
0.00269785
-0.00189819
-0.00654233
-0.0107003
-0.0139022
-0.0160795
-0.0173567
-0.0180579
-0.0186582
-0.0193471
-0.020201
-0.0210584
-0.0216929
-0.0218226
-0.021439
-0.0206348
-0.0195952
-0.0187233
-0.0182791
-0.0184328
-0.0192126
-0.0205672
-0.0223098
-0.02433
-0.0265635
-0.0289528
-0.0315039
-0.0341825
-0.0367903
-0.0391005
-0.0407923
-0.041533
-0.0410686
-0.0393222
-0.0363853
-0.0327257
-0.0288812
-0.0254619
-0.022954
-0.0215267
-0.0209729
-0.0208348
-0.0205507
-0.0196351
-0.0178784
-0.0153261
-0.0121862
-0.00876653
-0.00516087
-0.00124804
0.00324387
0.00853599
0.0147201
0.0215051
0.0283797
0.0346896
0.0398078
0.0434722
0.0458014
0.0472421
0.0484447
0.0501308
0.052784
0.0566848
0.0618671
0.0679897
0.0745036
0.0805623
0.0853641
0.0883068
0.0891338
0.0879586
0.0852298
0.0816122
0.0777319
0.0741185
0.0711585
0.0692963
0.0689636
0.070536
0.0738696
0.0782754
0.0823991
0.0844234
0.0826644
0.0760935
0.0646002
0.0491698
0.0315269
0.0136078
-0.00287497
-0.0168061
-0.0277122
-0.035518
-0.0405306
-0.0432424
-0.0442593
-0.0442696
-0.0439081
-0.0436639
-0.0438183
-0.0444744
-0.0455825
-0.047011
-0.0486125
-0.0503187
-0.0520128
-0.053595
-0.0549266
-0.0557232
-0.0559455
-0.0557045
-0.0553412
-0.0555995
-0.0575798
-0.0626396
-0.0722918
-0.0877909
-0.109755
-0.137581
-0.168812
-0.198918
-0.221371
-0.228404
-0.212332
-0.166985
-0.0889672
0.0216696
0.16159
0.324872
0.503692
0.688926
0.869849
1.03328
1.16279
1.23965
1.24613
1.17075
1.01366
0.789803
0.527787
0.264089
0.0340314
-0.137094
-0.239707
-0.280303
-0.276703
-0.25062
-0.220697
-0.198337
-0.187185
-0.185283
-0.188361
-0.192322
-0.194632
-0.194519
-0.192293
-0.188817
-0.184985
-0.181646
-0.17941
-0.178684
-0.179397
-0.181146
-0.183254
-0.184884
-0.185213
-0.183776
-0.180404
-0.175421
-0.16953
-0.163513
-0.158255
-0.154384
-0.152137
-0.15133
-0.151428
-0.151742
-0.151628
-0.150805
-0.149252
-0.147391
-0.145724
-0.144633
-0.144258
-0.144401
-0.144686
-0.144665
-0.144081
-0.142871
-0.141217
-0.139345
-0.137505
-0.135695
-0.133984
-0.132319
-0.130755
-0.129593
-0.129112
-0.129591
-0.13114
-0.133528
-0.136207
-0.138494
-0.139683
-0.139233
-0.137121
-0.133727
-0.129906
-0.126713
-0.125114
-0.125731
-0.128597
-0.133187
-0.138589
-0.143908
-0.14837
-0.151709
-0.15404
-0.155706
-0.156957
-0.157933
-0.158418
-0.157991
-0.15618
-0.152552
-0.146813
-0.139021
-0.1293
-0.117938
-0.105188
-0.0913338
-0.076743
-0.0619989
-0.0479215
-0.0354123
-0.0253502
-0.0181217
-0.0135388
-0.0108218
-0.0086966
-0.0058151
-0.00121941
0.00552293
0.0143135
0.0243401
0.0347209
0.04447
0.0529541
0.0598875
0.0654359
0.0699325
0.0737639
0.0772629
0.0804393
0.0832388
0.0854922
0.08713
0.0881409
0.0886262
0.088662
0.0882053
0.0872228
0.0856838
0.0836284
0.0813661
0.0791575
0.0772619
0.0756963
0.0742155
0.072293
0.0695107
0.0656814
0.0611448
0.0565576
0.052697
0.0502439
0.0493615
0.0496991
0.0505628
0.0511792
0.050919
0.0496463
0.0475294
0.0450265
0.0426077
0.0405512
0.0389046
0.0376149
0.0364387
0.0351556
0.0335277
0.0314592
0.0287991
0.0255299
0.0216614
0.0174042
0.0131192
0.00922711
0.00606299
0.00378435
0.00240138
0.00153328
0.000896042
0.000217722
-0.000612782
-0.00152305
-0.00233869
-0.00299275
-0.00353192
-0.00416645
-0.00528934
-0.00715497
-0.00986612
-0.0132938
-0.0170072
-0.0204025
-0.0228763
-0.0240915
-0.023975
-0.0229283
-0.0215569
-0.0206838
-0.0209245
-0.0226273
-0.0256966
-0.0296328
-0.0335913
-0.0366701
-0.0382792
-0.0381804
-0.0366158
-0.0342238
-0.0317555
-0.0297882
-0.0285877
-0.0280651
-0.027856
-0.0276608
-0.0272823
-0.0268553
-0.0266722
-0.0269966
-0.0278883
-0.0292252
-0.0306421
-0.0316745
-0.0320198
-0.0313513
-0.0295436
-0.0265111
-0.0221595
-0.0164459
-0.00957893
-0.00190659
0.00595068
0.0132851
0.0196026
0.0246777
0.0286821
0.0321495
0.0357194
0.0399112
0.0451109
0.0512565
0.0579363
0.064549
0.0703187
0.0746063
0.0769387
0.0772389
0.0755677
0.0722403
0.0676113
0.0619935
0.0557562
0.0493995
0.0435399
0.0390471
0.0367196
0.0367231
0.0385626
0.0408734
0.0416227
0.0389089
0.0316177
0.0196974
0.0044644
-0.0119133
-0.0271211
-0.0393
-0.0475562
-0.0520529
-0.0537418
-0.0539659
-0.0540854
-0.0550867
-0.0573783
-0.0608311
-0.0646375
-0.0678562
-0.0696112
-0.0694588
-0.0674268
-0.064148
-0.0606165
-0.0576537
-0.0558797
-0.0554138
-0.0559446
-0.0569874
-0.0579986
-0.0585874
-0.0589777
-0.0599792
-0.0631626
-0.0705731
-0.0843923
-0.106172
-0.135775
-0.170514
-0.204544
-0.228832
-0.23171
-0.200358
-0.123679
0.00433989
0.180864
0.391234
0.608773
0.798162
0.923159
0.95607
0.886621
0.726191
0.505621
0.266942
0.0514461
-0.111146
-0.208697
-0.246544
-0.241757
-0.215106
-0.18408
-0.15912
-0.143661
-0.136574
-0.134975
-0.136283
-0.138999
-0.142554
-0.146781
-0.151417
-0.156114
-0.1604
-0.163882
-0.166001
-0.16621
-0.164087
-0.159568
-0.153144
-0.145833
-0.138846
-0.133129
-0.129103
-0.126613
-0.125136
-0.124154
-0.123484
-0.123239
-0.123614
-0.124601
-0.125839
-0.126732
-0.126701
-0.125526
-0.123463
-0.121042
-0.118829
-0.117136
-0.115966
-0.115027
-0.113969
-0.112559
-0.110761
-0.108672
-0.10636
-0.103833
-0.101086
-0.098172
-0.0952449
-0.0926174
-0.0905658
-0.0892199
-0.0884788
-0.0879429
-0.087065
-0.0854122
-0.0827839
-0.0794511
-0.0760871
-0.0735113
-0.0724806
-0.0734387
-0.0764058
-0.0809742
-0.0864968
-0.0922016
-0.097497
-0.102065
-0.105767
-0.108542
-0.110425
-0.111351
-0.111418
-0.110812
-0.109985
-0.109487
-0.109881
-0.111505
-0.114338
-0.117985
-0.121589
-0.124043
-0.124202
-0.12102
-0.113896
-0.10285
-0.088557
-0.0723241
-0.055702
-0.0400915
-0.0264021
-0.0149768
-0.0055624
0.00244629
0.00967633
0.0167113
0.024012
0.0319631
0.0408835
0.0508422
0.0617518
0.0731757
0.084408
0.0946519
0.1032
0.109678
0.113955
0.116247
0.117026
0.116868
0.116424
0.11632
0.11689
0.118224
0.12002
0.121636
0.122327
0.121575
0.119229
0.115512
0.111053
0.106518
0.102388
0.0987165
0.0953618
0.0922343
0.089292
0.0867155
0.0848919
0.0840681
0.0842288
0.0849199
0.0854916
0.0852428
0.0837489
0.0809402
0.0771952
0.0730006
0.06881
0.064785
0.060864
0.0569135
0.0528446
0.0488195
0.0451705
0.0422668
0.0404091
0.0395021
0.0392645
0.0394023
0.0397348
0.040099
0.0405886
0.0413217
0.0421966
0.0431079
0.0437983
0.0440225
0.0437575
0.0431051
0.0422948
0.0415707
0.0409849
0.0404107
0.0395847
0.0381867
0.0359995
0.0329222
0.0291159
0.0248306
0.0204822
0.0164563
0.0130093
0.0103616
0.00867129
0.00793627
0.00802963
0.00877625
0.00986681
0.0109742
0.0118594
0.0123344
0.0123807
0.0122148
0.0120396
0.0121655
0.0125408
0.0129242
0.0128284
0.0116624
0.00908608
0.0053132
0.00113238
-0.00221114
-0.00329431
-0.00100819
0.00494111
0.0142044
0.0255645
0.0375924
0.0488809
0.0584891
0.0661389
0.0721854
0.0773612
0.0824372
0.0879626
0.0938796
0.0996985
0.104648
0.107869
0.108748
0.107123
0.103311
0.097943
0.0919103
0.0861212
0.0814523
0.0785436
0.0776956
0.0784935
0.0799944
0.0808331
0.0793917
0.0746285
0.0660729
0.0541953
0.0401868
0.0255973
0.0119042
0.000166318
-0.0091678
-0.016172
-0.0211695
-0.0246866
-0.0272965
-0.029401
-0.0313267
-0.0330731
-0.0345457
-0.0355499
-0.035961
-0.0358028
-0.0352923
-0.0348066
-0.0347205
-0.035258
-0.0365473
-0.0384855
-0.0406683
-0.042724
-0.0441604
-0.0446463
-0.0441989
-0.0433878
-0.0435208
-0.0465679
-0.0547503
-0.0699141
-0.0929569
-0.122828
-0.155946
-0.185875
-0.203557
-0.19803
-0.157591
-0.0719188
0.0647693
0.25014
0.470743
0.700901
0.905187
1.04539
1.09041
1.02608
0.861011
0.62575
0.364723
0.12364
-0.0628589
-0.179095
-0.229046
-0.230681
-0.207085
-0.178198
-0.15596
-0.143984
-0.140233
-0.140899
-0.14271
-0.144035
-0.144639
-0.144927
-0.14527
-0.145623
-0.145856
-0.145677
-0.145049
-0.143921
-0.142345
-0.140382
-0.138172
-0.135796
-0.133555
-0.131599
-0.130101
-0.129174
-0.128804
-0.12894
-0.129425
-0.129988
-0.130251
-0.129881
-0.128725
-0.126742
-0.124104
-0.121027
-0.117707
-0.114244
-0.110599
-0.106749
-0.102707
-0.0988654
-0.095549
-0.093196
-0.0920265
-0.0919412
-0.0925445
-0.0933473
-0.0937328
-0.0934496
-0.0925317
-0.0912164
-0.0899768
-0.0891804
-0.0890486
-0.0895656
-0.0905681
-0.0918037
-0.0930048
-0.0938903
-0.0942015
-0.0938408
-0.0927769
-0.0912805
-0.0897029
-0.088643
-0.0885968
-0.0898343
-0.0923636
-0.095918
-0.100057
-0.104347
-0.108351
-0.111886
-0.114877
-0.117331
-0.11934
-0.121041
-0.122433
-0.123454
-0.123766
-0.122865
-0.120106
-0.114808
-0.106405
-0.0945557
-0.0793919
-0.0613961
-0.041488
-0.0207951
-0.000589159
0.0181794
0.0348894
0.049472
0.0622009
0.07356
0.0840496
0.09389
0.102865
0.110682
0.116939
0.121383
0.124158
0.12561
0.126136
0.126228
0.126117
0.125908
0.125672
0.125408
0.125193
0.12509
0.125144
0.125232
0.125122
0.124443
0.122814
0.119964
0.115824
0.110588
0.104685
0.0987447
0.0932883
0.088745
0.0853034
0.0828858
0.0813164
0.0804009
0.0799342
0.0797376
0.0797056
0.0796038
0.079262
0.0783856
0.0767904
0.0744297
0.0713427
0.0678203
0.0641907
0.0608811
0.0581076
0.0559525
0.0542346
0.0525268
0.0503979
0.0474011
0.0433611
0.0383382
0.032708
0.0269172
0.0215573
0.017156
0.0140629
0.0124506
0.0122609
0.013223
0.0149017
0.016805
0.0183806
0.0193061
0.0192835
0.018237
0.0163766
0.0138787
0.0110512
0.00814188
0.00540401
0.00306111
0.00124844
6.52291e-5
-0.000505524
-0.000569549
-0.000328632
3.71008e-6
0.000245192
0.000355607
0.000331019
0.000252551
0.000106832
-0.000167988
-0.000753536
-0.00174953
-0.00318204
-0.00497816
-0.00681743
-0.0084546
-0.00966521
-0.010397
-0.0109006
-0.0114995
-0.0125544
-0.0141151
-0.0158904
-0.0171373
-0.0168991
-0.0142786
-0.00880761
-0.000599955
0.00958101
0.0205719
0.0311938
0.0406081
0.0485578
0.0553046
0.061436
0.0674241
0.0733696
0.0788994
0.083253
0.0856041
0.0852701
0.0820617
0.0763043
0.068812
0.0607015
0.0533373
0.0480386
0.0459024
0.0473946
0.0520268
0.0583618
0.064219
0.0671857
0.0653769
0.0580026
0.0455585
0.029721
0.0126711
-0.00339682
-0.0170121
-0.0275336
-0.0350474
-0.0401436
-0.0435635
-0.0459081
-0.0476664
-0.0491678
-0.0506898
-0.0523956
-0.0544965
-0.0569775
-0.0597219
-0.0623368
-0.0644604
-0.0656092
-0.0654407
-0.0638416
-0.060931
-0.0568683
-0.0520513
-0.047001
-0.0422592
-0.03856
-0.036874
-0.0385703
-0.0452897
-0.0586752
-0.0798439
-0.10878
-0.143766
-0.180525
-0.212098
-0.229364
-0.221734
-0.17845
-0.0901798
0.0481842
0.234699
0.457593
0.693927
0.911044
1.07185
1.14345
1.10682
0.963844
0.738773
0.472803
0.212773
-0.00153218
-0.147058
-0.221068
-0.237594
-0.219364
-0.189006
-0.162428
-0.14644
-0.140792
-0.141618
-0.144809
-0.147709
-0.149491
-0.150614
-0.151692
-0.153016
-0.154493
-0.155824
-0.156781
-0.157278
-0.157305
-0.157021
-0.156652
-0.156323
-0.156036
-0.155627
-0.15486
-0.153436
-0.151229
-0.148276
-0.144922
-0.141578
-0.138556
-0.136074
-0.13406
-0.132312
-0.130621
-0.128907
-0.12726
-0.125908
-0.124881
-0.124128
-0.12335
-0.122255
-0.120598
-0.118382
-0.115961
-0.1138
-0.112394
-0.112054
-0.112929
-0.114804
-0.117222
-0.119788
-0.122022
-0.12361
-0.124362
-0.124218
-0.123307
-0.121699
-0.119583
-0.117161
-0.114611
-0.112227
-0.110301
-0.108946
-0.108343
-0.108418
-0.10899
-0.109778
-0.110464
-0.110841
-0.110902
-0.110791
-0.110796
-0.111276
-0.112362
-0.114063
-0.116243
-0.118472
-0.120323
-0.12133
-0.121216
-0.119827
-0.117169
-0.113343
-0.108376
-0.10216
-0.0944246
-0.0848309
-0.073203
-0.0597884
-0.0452253
-0.0305855
-0.0169577
-0.00510914
0.00474194
0.0129919
0.0204073
0.0277046
0.0353866
0.0435018
0.0516426
0.0592743
0.0660469
0.0717722
0.0766053
0.0807887
0.0845853
0.0881257
0.0913776
0.0943529
0.0970615
0.0995667
0.101867
0.103939
0.105592
0.106606
0.106763
0.106016
0.104454
0.102424
0.100235
0.0981648
0.096362
0.0949261
0.0937276
0.0926286
0.0913716
0.0896978
0.087368
0.0842639
0.0803641
0.0758408
0.0710148
0.0662032
0.0618396
0.0582308
0.0555885
0.0540025
0.0534209
0.0534893
0.053743
0.0536072
0.0525268
0.0502437
0.0468305
0.0425462
0.0379295
0.0333999
0.029207
0.0253262
0.0216268
0.0178938
0.014102
0.0103876
0.00699816
0.004177
0.00203727
0.00053702
-0.000455399
-0.00120451
-0.00185457
-0.00258485
-0.00331345
-0.00399622
-0.00441785
-0.00444033
-0.00403113
-0.00336999
-0.00267939
-0.00233658
-0.00252774
-0.00326214
-0.00442158
-0.00570968
-0.00690294
-0.00796557
-0.00913162
-0.0106635
-0.0127874
-0.0153887
-0.0181905
-0.020704
-0.0224318
-0.0231693
-0.0230902
-0.0225618
-0.0221429
-0.0221552
-0.0227102
-0.0234938
-0.0241835
-0.0243772
-0.0240057
-0.0232195
-0.0224585
-0.0221498
-0.0226691
-0.0240276
-0.0258559
-0.0275271
-0.0281746
-0.0269889
-0.0233462
-0.0171139
-0.0084836
0.0017862
0.0128779
0.0238612
0.034042
0.0429976
0.0506237
0.0570782
0.0625844
0.0673389
0.0713521
0.0744231
0.0762462
0.0765373
0.0751767
0.0721589
0.0677613
0.0624373
0.0567732
0.0514755
0.0473393
0.0452875
0.045943
0.0493511
0.0546513
0.0602129
0.0638113
0.0634139
0.0577064
0.0466062
0.0312503
0.0135862
-0.00419082
-0.0201885
-0.0331623
-0.0426392
-0.0486843
-0.0517115
-0.0524185
-0.0517518
-0.0507553
-0.0503228
-0.0510433
-0.0530959
-0.0562361
-0.0598762
-0.0634665
-0.0667099
-0.069556
-0.0721785
-0.0745851
-0.0765698
-0.0776239
-0.0771628
-0.0747829
-0.0705759
-0.0652035
-0.0598574
-0.0560451
-0.0556774
-0.0606077
-0.0723423
-0.0917988
-0.118845
-0.151784
-0.186821
-0.217978
-0.23737
-0.235911
-0.203964
-0.132773
-0.016474
0.145352
0.344832
0.563809
0.774427
0.942842
1.03659
1.03346
0.929015
0.739776
0.499782
0.251779
0.0355939
-0.122039
-0.212312
-0.243235
-0.233619
-0.204897
-0.174417
-0.151979
-0.140236
-0.137193
-0.139183
-0.143138
-0.147204
-0.150631
-0.153266
-0.154995
-0.155745
-0.155526
-0.154519
-0.153032
-0.151316
-0.14953
-0.1476
-0.145535
-0.143201
-0.140708
-0.13824
-0.1361
-0.134443
-0.133387
-0.132785
-0.132362
-0.131764
-0.130542
-0.128376
-0.125223
-0.121442
-0.117553
-0.114219
-0.11205
-0.111222
-0.11154
-0.112435
-0.113215
-0.113254
-0.112214
-0.110266
-0.107906
-0.105829
-0.104748
-0.105026
-0.106688
-0.109311
-0.112047
-0.114099
-0.114808
-0.113953
-0.111804
-0.108922
-0.105994
-0.103477
-0.101554
-0.100083
-0.0986505
-0.097075
-0.0953115
-0.0936207
-0.0923643
-0.0918565
-0.092044
-0.092581
-0.0930254
-0.0929734
-0.0923982
-0.0915929
-0.0909995
-0.0910706
-0.0919309
-0.0933981
-0.0951243
-0.0967698
-0.0982211
-0.0997212
-0.101549
-0.103834
-0.106258
-0.108025
-0.10801
-0.105043
-0.0985856
-0.0886597
-0.0761193
-0.0623892
-0.0490255
-0.0374254
-0.0284172
-0.0221569
-0.0181855
-0.0156392
-0.0133588
-0.0103616
-0.00589079
0.000390255
0.00839279
0.0176492
0.0275789
0.0374929
0.0467717
0.0549752
0.0618364
0.067237
0.0713528
0.0743802
0.0766743
0.0784405
0.0798891
0.08103
0.0818036
0.0820268
0.0814433
0.079945
0.0775297
0.0743935
0.071064
0.068261
0.0666418
0.0667331
0.0685998
0.0717617
0.0753693
0.0784078
0.0799227
0.0794928
0.0771581
0.0733516
0.0687541
0.0641011
0.0597516
0.0558624
0.0523098
0.0488846
0.0454231
0.0419142
0.0384779
0.0353312
0.0325589
0.030179
0.0280899
0.0261043
0.0240187
0.0216666
0.0189555
0.0158976
0.0126439
0.00939401
0.00631183
0.00366698
0.00162949
0.000226674
-0.000622663
-0.00105968
-0.00132919
-0.00162021
-0.00221085
-0.00322158
-0.0048176
-0.00700567
-0.00970033
-0.0126921
-0.0157287
-0.0185706
-0.0210819
-0.0233596
-0.0256594
-0.0282403
-0.0312789
-0.0346806
-0.0380102
-0.0407413
-0.0423742
-0.0427012
-0.0417359
-0.0398087
-0.0373174
-0.0345813
-0.0317112
-0.0287285
-0.0257478
-0.023142
-0.0213548
-0.0209923
-0.0223786
-0.0254904
-0.0297786
-0.0343615
-0.038181
-0.0405082
-0.0409897
-0.0397933
-0.0373774
-0.0342173
-0.0305737
-0.0264648
-0.0218146
-0.0166391
-0.011192
-0.00586161
-0.000906116
0.00366315
0.00832898
0.0139086
0.0209261
0.0294662
0.0388719
0.0478393
0.0549226
0.0591655
0.0603204
0.0589653
0.0561587
0.0529241
0.0498626
0.0471307
0.0445604
0.0420926
0.040123
0.0392574
0.0400558
0.0424235
0.0453548
0.0469799
0.0451618
0.0382558
0.0257271
0.00863403
-0.0107477
-0.0296469
-0.0453436
-0.0562915
-0.0621469
-0.0637035
-0.0624722
-0.0601893
-0.0581115
-0.0569547
-0.0568178
-0.0573221
-0.0580218
-0.0586645
-0.0592017
-0.0597766
-0.0606255
-0.0618472
-0.0633355
-0.0647092
-0.0655796
-0.0654642
-0.0641925
-0.061737
-0.0584653
-0.0549666
-0.0520429
-0.0507403
-0.0523699
-0.0582527
-0.0695848
-0.087093
-0.11069
-0.139146
-0.169663
-0.197546
-0.216336
-0.217945
-0.193003
-0.131959
-0.027534
0.122367
0.311312
0.521967
0.726481
0.890581
0.981557
0.977358
0.8742
0.689187
0.456726
0.21893
0.0141691
-0.132615
-0.214398
-0.240279
-0.229071
-0.201444
-0.173326
-0.153147
-0.142527
-0.13914
-0.139401
-0.140469
-0.141041
-0.141019
-0.140705
-0.140326
-0.139962
-0.139548
-0.138959
-0.137985
-0.136476
-0.134352
-0.131616
-0.128586
-0.125822
-0.123854
-0.122978
-0.12304
-0.123422
-0.123313
-0.122022
-0.119248
-0.11543
-0.111555
-0.10875
-0.107769
-0.108869
-0.111562
-0.114836
-0.11759
-0.11899
-0.118721
-0.11701
-0.114425
-0.111753
-0.109519
-0.107872
-0.106602
-0.105318
-0.103597
-0.101271
-0.0984556
-0.0955166
-0.0929549
-0.0912217
-0.0904552
-0.090547
-0.091084
-0.0915759
-0.0914366
-0.0904285
-0.0885876
-0.08622
-0.0837447
-0.081607
-0.0801101
-0.079453
-0.0796288
-0.0806498
-0.0824951
-0.0850065
-0.0879602
-0.0909092
-0.0933526
-0.0948319
-0.0952396
-0.0948797
-0.0944883
-0.0950087
-0.097261
-0.101497
-0.107361
-0.113848
-0.119684
-0.123706
-0.125094
-0.123556
-0.119239
-0.11245
-0.103705
-0.0935415
-0.0826483
-0.0717439
-0.0616482
-0.0529763
-0.0461091
-0.0410444
-0.0372623
-0.0341216
-0.0308662
-0.0268642
-0.021681
-0.0151637
-0.0072897
0.00166886
0.0114348
0.0215909
0.0318372
0.0419462
0.0518017
0.0614441
0.0708921
0.0802326
0.0894058
0.0982123
0.10651
0.114024
0.120648
0.12639
0.131306
0.135339
0.138364
0.140194
0.140643
0.139697
0.137582
0.134757
0.131751
0.129009
0.126698
0.124749
0.122939
0.121034
0.118942
0.116704
0.114519
0.112589
0.111032
0.109785
0.108724
0.107697
0.106496
0.105201
0.103938
0.102901
0.102148
0.101585
0.100992
0.100149
0.0989067
0.0973703
0.0958557
0.0947355
0.0942735
0.0944622
0.0949594
0.0952101
0.0945714
0.0925863
0.0891421
0.0843743
0.0787461
0.0728088
0.0670819
0.0619764
0.0576576
0.0541444
0.0513635
0.0491459
0.0474495
0.0462289
0.0455076
0.0453355
0.0457471
0.0466458
0.0478661
0.0492063
0.0504167
0.0512706
0.0516038
0.0513427
0.0504303
0.0488938
0.0468606
0.0445982
0.0422864
0.040224
0.0384267
0.0367581
0.0349423
0.0327316
0.0300376
0.0270363
0.0242002
0.0220502
0.0209537
0.0209794
0.0218873
0.0232332
0.0244552
0.0252124
0.0254299
0.0252038
0.024733
0.0241776
0.0235522
0.022769
0.021819
0.0209387
0.0206203
0.0215283
0.0243608
0.0294067
0.0364697
0.0448362
0.0534567
0.061322
0.0678528
0.0730433
0.0772919
0.0813618
0.0858848
0.0910931
0.0967453
0.102021
0.106007
0.10791
0.107363
0.104657
0.100559
0.0959664
0.0916944
0.0881726
0.0853317
0.082968
0.0809885
0.0796981
0.079674
0.0816168
0.085646
0.0910072
0.0959947
0.098431
0.0963313
0.0886328
0.0755165
0.0583441
0.0392112
0.0202981
0.00326378
-0.0108448
-0.0216941
-0.0293791
-0.0342539
-0.0368538
-0.0377706
-0.0375748
-0.0368202
-0.0359203
-0.035059
-0.0343428
-0.0338422
-0.0336401
-0.0337952
-0.0344873
-0.0357354
-0.0372988
-0.038715
-0.0394184
-0.0390165
-0.0375278
-0.0355038
-0.0342147
-0.0354751
-0.0413256
-0.0535551
-0.0732345
-0.10023
-0.132826
-0.166984
-0.196294
-0.212299
-0.204987
-0.163718
-0.0790424
0.0547838
0.236706
0.455971
0.690465
0.908001
1.07145
1.14745
1.11593
0.977552
0.755365
0.489727
0.227321
0.00854187
-0.14238
-0.22121
-0.240761
-0.223233
-0.191425
-0.162053
-0.143034
-0.135006
-0.134546
-0.137273
-0.13997
-0.141208
-0.14089
-0.139512
-0.137642
-0.135621
-0.133729
-0.132098
-0.130751
-0.129612
-0.128571
-0.127441
-0.126148
-0.124725
-0.123308
-0.122047
-0.12107
-0.120402
-0.120067
-0.119971
-0.120044
-0.120262
-0.120581
-0.120982
-0.121395
-0.121702
-0.121723
-0.12131
-0.120368
-0.11887
-0.116777
-0.114204
-0.111233
-0.108097
-0.105009
-0.102215
-0.0999128
-0.0982173
-0.0970571
-0.0962942
-0.0957678
-0.0953706
-0.0950624
-0.0950145
-0.0952602
-0.0959367
-0.0969806
-0.0982289
-0.0995068
-0.100617
-0.101336
-0.101585
-0.101337
-0.100663
-0.0996824
-0.0985172
-0.0972407
-0.0958161
-0.0942285
-0.0924727
-0.0906342
-0.0889584
-0.0877118
-0.0871317
-0.08737
-0.0884227
-0.090096
-0.0921186
-0.0943374
-0.0966017
-0.0988865
-0.101058
-0.102957
-0.104316
-0.10469
-0.103491
-0.10027
-0.0946676
-0.0866586
-0.0765731
-0.0650592
-0.052955
-0.0412364
-0.030776
-0.0221032
-0.0154105
-0.0105008
-0.00675724
-0.00349188
4.26146e-5
0.00441851
0.0100557
0.0171495
0.0256733
0.0355099
0.0464174
0.0579753
0.0696478
0.0808887
0.0911662
0.10011
0.107505
0.113402
0.117941
0.121413
0.124063
0.126146
0.127842
0.129372
0.130986
0.132935
0.135451
0.138513
0.141865
0.145088
0.147464
0.148458
0.147685
0.145116
0.141071
0.136102
0.130745
0.125524
0.120812
0.116759
0.113453
0.110912
0.109182
0.108212
0.107981
0.108266
0.108876
0.109383
0.109479
0.108945
0.107763
0.105918
0.103502
0.100577
0.0971016
0.0930682
0.0885663
0.0837882
0.0791279
0.0749419
0.0714725
0.0686472
0.0661442
0.0635637
0.0605281
0.0568571
0.052728
0.0485266
0.0447415
0.0418547
0.0401337
0.0395301
0.0396651
0.0400675
0.0401502
0.0394997
0.037921
0.0356366
0.032965
0.0304118
0.0283083
0.0266934
0.0254531
0.0243228
0.023055
0.0215713
0.019863
0.0179392
0.0158079
0.0132684
0.0101337
0.0063817
0.00217081
-0.00212077
-0.00597062
-0.0089044
-0.0106295
-0.0110714
-0.0103704
-0.00889516
-0.00709431
-0.0053718
-0.00406433
-0.00327616
-0.00300577
-0.00310822
-0.00327853
-0.00327006
-0.00298286
-0.00239275
-0.0016433
-0.000836535
1.691e-7
0.00102314
0.00252975
0.00501958
0.00896086
0.0146084
0.0218348
0.0301466
0.0386893
0.0466268
0.0532855
0.0584893
0.0624402
0.0656603
0.0686418
0.0717311
0.0750201
0.078342
0.0816021
0.0848154
0.0880021
0.0912187
0.0943802
0.0970788
0.0988001
0.0988684
0.0969047
0.0929482
0.0875836
0.0817544
0.0765745
0.0731416
0.072143
0.0736323
0.0768919
0.0804492
0.0824471
0.0811302
0.0753472
0.0648507
0.0505885
0.0341198
0.0174086
0.00217394
-0.0105512
-0.0203901
-0.027505
-0.0323421
-0.0353487
-0.0369345
-0.0375189
-0.0373542
-0.0367882
-0.036143
-0.0357222
-0.0357319
-0.0363629
-0.0376076
-0.0394279
-0.0416959
-0.0441669
-0.0466735
-0.048923
-0.0508192
-0.0524053
-0.0538773
-0.0556497
-0.0583214
-0.0627832
-0.0702516
-0.0819697
-0.0990964
-0.122099
-0.150256
-0.180743
-0.208121
-0.224554
-0.220525
-0.185794
-0.111106
0.00972339
0.177179
0.383597
0.611156
0.832318
1.01291
1.11909
1.12622
1.02692
0.835414
0.585109
0.320277
0.0839359
-0.0931887
-0.199276
-0.240947
-0.237482
-0.212046
-0.183955
-0.164157
-0.155375
-0.154971
-0.158436
-0.16207
-0.164037
-0.164195
-0.163231
-0.161841
-0.160297
-0.158634
-0.156808
-0.154822
-0.152846
-0.151063
-0.149616
-0.148587
-0.14782
-0.147034
-0.145995
-0.144579
-0.142797
-0.140927
-0.139287
-0.138072
-0.137283
-0.136681
-0.135891
-0.134568
-0.132551
-0.129908
-0.126961
-0.124071
-0.121538
-0.119462
-0.117849
-0.116461
-0.115117
-0.113655
-0.111934
-0.110044
-0.108127
-0.106309
-0.10471
-0.103412
-0.102397
-0.101601
-0.100948
-0.10038
-0.0998596
-0.0994744
-0.0993069
-0.0994409
-0.0998524
-0.100352
-0.10066
-0.100486
-0.0996969
-0.0983207
-0.0965337
-0.0946374
-0.0928314
-0.0912718
-0.0899853
-0.0889111
-0.0881072
-0.0875112
-0.0871913
-0.0871414
-0.0873487
-0.0877758
-0.0884605
-0.0895165
-0.0910555
-0.0931827
-0.0957055
-0.0983291
-0.100538
-0.101736
-0.10134
-0.0988619
-0.0939881
-0.0865802
-0.0767191
-0.0647192
-0.0513208
-0.0375164
-0.0244625
-0.0132359
-0.00455073
0.00156572
0.00568786
0.00889775
0.0124656
0.0174421
0.0244238
0.0334293
0.0439887
0.0552659
0.0663185
0.0764449
0.0850631
0.092033
0.0975352
0.101883
0.105434
0.108349
0.110632
0.112128
0.11269
0.112236
0.110964
0.10921
0.107306
0.105588
0.10417
0.102984
0.101889
0.100673
0.0992765
0.0977944
0.0965112
0.0956514
0.0954278
0.0958736
0.0968009
0.0978027
0.0984161
0.0982707
0.0971261
0.095089
0.0924464
0.0896087
0.0868697
0.0843699
0.0820023
0.0794594
0.0764039
0.0726393
0.0682515
0.0635304
0.0589232
0.0547608
0.051305
0.0486464
0.0466754
0.0452293
0.043995
0.0427168
0.0411065
0.0390486
0.0365056
0.0336738
0.0308347
0.028268
0.0262036
0.0246364
0.0233764
0.0220702
0.0204587
0.01841
0.0159145
0.013118
0.0101569
0.00712322
0.00402519
0.00072928
-0.00283907
-0.00654637
-0.0102265
-0.0136006
-0.016347
-0.0183101
-0.0195507
-0.0202448
-0.0206613
-0.0210045
-0.0213294
-0.0215426
-0.0214786
-0.021051
-0.0201413
-0.0188841
-0.0175172
-0.0162385
-0.0152501
-0.014633
-0.0143663
-0.0143873
-0.0145705
-0.014925
-0.0154866
-0.016228
-0.0171543
-0.0182314
-0.0193495
-0.020398
-0.0212984
-0.0220908
-0.0227728
-0.0233647
-0.0236537
-0.0232802
-0.0216361
-0.0180725
-0.0121323
-0.0036856
0.00679398
0.0184615
0.0301979
0.0410389
0.0502526
0.0576278
0.0633868
0.0680817
0.0722031
0.076225
0.0802973
0.0842551
0.0877798
0.0903744
0.0915578
0.0909962
0.0885717
0.0843999
0.0788532
0.0725546
0.0663012
0.061125
0.0581404
0.0579848
0.0605737
0.0648834
0.0690488
0.0708832
0.0684839
0.0608453
0.0483104
0.0322964
0.0149242
-0.00170205
-0.0159247
-0.0268689
-0.0343762
-0.038755
-0.0406397
-0.0408362
-0.0401176
-0.0392707
-0.0388849
-0.0393105
-0.0406922
-0.0429069
-0.0455865
-0.0483074
-0.0507422
-0.0527814
-0.0544071
-0.055617
-0.0563929
-0.0566527
-0.0561126
-0.0547738
-0.0528152
-0.0509876
-0.0506512
-0.0538592
-0.0627506
-0.0792272
-0.104069
-0.136267
-0.172587
-0.207311
-0.23281
-0.240341
-0.221334
-0.16807
-0.074607
0.0616247
0.238051
0.444891
0.663531
0.866999
1.02331
1.10215
1.0834
0.964426
0.762823
0.513339
0.258661
0.0381362
-0.122224
-0.214313
-0.246861
-0.239
-0.212126
-0.183349
-0.162104
-0.150721
-0.147177
-0.148006
-0.150164
-0.151886
-0.152626
-0.152534
-0.151947
-0.151304
-0.151106
-0.15174
-0.153321
-0.155566
-0.15792
-0.159703
-0.160335
-0.159678
-0.157897
-0.155494
-0.153103
-0.151118
-0.149731
-0.148734
-0.147732
-0.146252
-0.14397
-0.140897
-0.137329
-0.133817
-0.130929
-0.129003
-0.128181
-0.128122
-0.128312
-0.128231
-0.127543
-0.126231
-0.1246
-0.123044
-0.121866
-0.121169
-0.120806
-0.120591
-0.120408
-0.120481
-0.121019
-0.122308
-0.124222
-0.126209
-0.127419
-0.12693
-0.124288
-0.119696
-0.114058
-0.10863
-0.104551
-0.102618
-0.102832
-0.104708
-0.107428
-0.1102
-0.112432
-0.113778
-0.114158
-0.113761
-0.113018
-0.112446
-0.112745
-0.114398
-0.117718
-0.12249
-0.128047
-0.133462
-0.13779
-0.140247
-0.140513
-0.138664
-0.135038
-0.130085
-0.12405
-0.116909
-0.108389
-0.0979703
-0.0854668
-0.0710659
-0.0555169
-0.0398897
-0.0252757
-0.0124771
-0.00173852
0.00723792
0.0151332
0.0225902
0.0300736
0.0376249
0.0450453
0.0520459
0.0583005
0.0637072
0.0682187
0.071786
0.0744853
0.0763938
0.0776948
0.0786551
0.0796517
0.0809559
0.0826296
0.0843307
0.0856104
0.0859395
0.084997
0.0828438
0.0798299
0.0765354
0.0734934
0.0710372
0.0691313
0.0674613
0.0655057
0.0628416
0.0592826
0.0549469
0.0503516
0.0461452
0.043094
0.0417192
0.0421243
0.0439181
0.0463035
0.0483041
0.0489868
0.0478428
0.04485
0.0406272
0.0360562
0.0321234
0.0296295
0.028712
0.0290328
0.0296697
0.0295975
0.0278734
0.0241134
0.018519
0.0119902
0.00563068
0.000534989
-0.00263518
-0.00380875
-0.00347388
-0.00256213
-0.00193509
-0.00227132
-0.00384764
-0.0065734
-0.00998886
-0.0135209
-0.0165866
-0.0187698
-0.0200091
-0.0203497
-0.0200959
-0.0196059
-0.0190864
-0.0187247
-0.0186007
-0.0188359
-0.0194535
-0.0204527
-0.0215987
-0.0226738
-0.0233551
-0.0236871
-0.0239738
-0.0249101
-0.0270926
-0.030803
-0.0357988
-0.0412173
-0.0460641
-0.0495486
-0.0514351
-0.0519775
-0.0517081
-0.0509709
-0.0496579
-0.0472851
-0.043012
-0.0361971
-0.0267069
-0.0150986
-0.00262792
0.0090738
0.0184529
0.0244965
0.026985
0.0267161
0.0250954
0.0239024
0.0245702
0.0278991
0.0336473
0.0408301
0.0480035
0.0536355
0.0567752
0.0569694
0.0543746
0.0494511
0.0429667
0.0356944
0.028634
0.02276
0.0190699
0.0183205
0.0205653
0.0249795
0.0298983
0.0331939
0.0326896
0.0270295
0.0160438
0.000763333
-0.0166741
-0.0336912
-0.0478889
-0.057698
-0.0626383
-0.0634242
-0.0616287
-0.0591541
-0.0578586
-0.0588412
-0.0624892
-0.0682129
-0.0749626
-0.0814102
-0.0865922
-0.0898938
-0.091307
-0.0913129
-0.0905533
-0.0896873
-0.089103
-0.0887439
-0.0881522
-0.0867086
-0.0838721
-0.0794117
-0.0738267
-0.0685191
-0.0656831
-0.0679265
-0.0775723
-0.0960438
-0.123198
-0.156454
-0.19051
-0.217414
-0.226932
-0.207419
-0.147622
-0.0395709
0.118098
0.31678
0.536118
0.745155
0.907519
0.990194
0.972877
0.85506
0.65774
0.418308
0.180259
-0.0187159
-0.156106
-0.227928
-0.245852
-0.230052
-0.201197
-0.174324
-0.156533
-0.148421
-0.147129
-0.149246
-0.152308
-0.155267
-0.158084
-0.160768
-0.163166
-0.164813
-0.165374
-0.164619
-0.162595
-0.159642
-0.156119
-0.152318
-0.148484
-0.144819
-0.141483
-0.138656
-0.136394
-0.134645
-0.133318
-0.13215
-0.130817
-0.129074
-0.126831
-0.12422
-0.12158
-0.119235
-0.117356
-0.115997
-0.114865
-0.113684
-0.112149
-0.1102
-0.108001
-0.105947
-0.104446
-0.103792
-0.10396
-0.104721
-0.105687
-0.106367
-0.106342
-0.105378
-0.103424
-0.100656
-0.0974167
-0.0940643
-0.0910003
-0.0884387
-0.0864974
-0.0852201
-0.0845568
-0.0844237
-0.0848014
-0.0855673
-0.0866602
-0.0879384
-0.0892654
-0.0906282
-0.0919873
-0.0934506
-0.0950785
-0.0969194
-0.0990326
-0.10135
-0.103806
-0.106344
-0.10894
-0.111629
-0.11445
-0.117501
-0.120653
-0.123763
-0.126442
-0.128234
-0.128548
-0.126739
-0.122243
-0.114707
-0.104007
-0.0904006
-0.0745042
-0.057217
-0.0395939
-0.02251
-0.00670275
0.00756447
0.0202865
0.0318037
0.0426844
0.0534002
0.0644102
0.0759173
0.0877737
0.0996519
0.110981
0.121226
0.129949
0.13691
0.142025
0.145488
0.147532
0.148458
0.148576
0.148233
0.147683
0.147101
0.146612
0.146216
0.145886
0.145535
0.145098
0.144454
0.143527
0.14212
0.139999
0.137127
0.133487
0.129231
0.124763
0.120475
0.116801
0.114049
0.112242
0.111293
0.110942
0.110892
0.110876
0.110692
0.11024
0.109409
0.108243
0.106717
0.104822
0.10257
0.100017
0.0971684
0.0941827
0.0911475
0.0880999
0.0850178
0.0818384
0.0783697
0.0745377
0.0703367
0.0658547
0.0613048
0.0569016
0.0528446
0.0492941
0.0462992
0.0438884
0.0420414
0.0407394
0.039925
0.039545
0.0395706
0.0398406
0.0403151
0.0409171
0.0415627
0.0421356
0.0425425
0.0424356
0.0415118
0.0393829
0.0357969
0.0307827
0.0247644
0.0185034
0.0128969
0.0087504
0.0064882
0.00607266
0.00711627
0.00895776
0.0109555
0.0126199
0.013698
0.0141384
0.0140768
0.0136294
0.0128935
0.012055
0.0111493
0.010257
0.00947584
0.00880411
0.00823139
0.00774201
0.00734639
0.00719161
0.00760934
0.00902316
0.0118733
0.016369
0.022401
0.0295442
0.0370628
0.044351
0.0509609
0.0569165
0.0625821
0.068537
0.075197
0.0826435
0.0903663
0.097544
0.103208
0.106508
0.107127
0.105211
0.101288
0.0961395
0.0904955
0.0851281
0.0807639
0.0782835
0.0784233
0.0816803
0.0877634
0.0954739
0.102676
0.106877
0.105969
0.0988309
0.0858221
0.068605
0.0494967
0.030833
0.0142591
0.000533567
-0.0102776
-0.0185816
-0.0247518
-0.0290625
-0.0317212
-0.0329431
-0.0331256
-0.03284
-0.0327359
-0.0333366
-0.0348563
-0.0372973
-0.0402168
-0.0431361
-0.0454643
-0.046747
-0.0467217
-0.0455024
-0.0434527
-0.0412522
-0.0399066
-0.040979
-0.0463372
-0.0579842
-0.0774445
-0.105105
-0.13923
-0.17513
-0.205035
-0.218531
-0.203546
-0.148074
-0.0426915
0.116039
0.322206
0.55802
0.79369
0.991319
1.11258
1.1293
1.03275
0.838126
0.581843
0.311728
0.0736029
-0.100828
-0.200693
-0.234915
-0.225133
-0.195987
-0.16699
-0.148333
-0.14152
-0.142793
-0.147266
-0.151306
-0.15344
-0.153859
-0.153481
-0.153075
-0.152925
-0.152978
-0.153112
-0.15338
-0.153882
-0.154715
-0.155968
-0.157577
-0.159307
-0.160905
-0.16197
-0.162183
-0.16139
-0.159435
-0.156354
-0.152409
-0.147933
-0.143441
-0.139437
-0.136298
-0.134153
-0.132891
-0.132176
-0.131584
-0.130882
-0.129925
-0.128817
-0.127777
-0.127046
-0.126867
-0.127346
-0.128496
-0.130125
-0.131947
-0.13374
-0.135236
-0.136338
-0.137014
-0.137276
-0.137067
-0.136269
-0.134759
-0.132451
-0.129379
-0.125796
-0.122192
-0.119054
-0.11683
-0.11582
-0.115978
-0.117073
-0.118776
-0.120602
-0.122287
-0.12383
-0.125363
-0.12717
-0.129429
-0.132211
-0.135355
-0.138485
-0.141197
-0.143166
-0.144249
-0.14436
-0.143667
-0.142213
-0.139919
-0.136654
-0.132126
-0.125876
-0.1175
-0.106565
-0.0927717
-0.075977
-0.0565582
-0.0352112
-0.0129896
0.00879194
0.0289036
0.0463759
0.0606948
0.0717971
0.0799816
0.0857499
0.0896681
0.092186
0.0937412
0.0946567
0.0952318
0.095686
0.0962987
0.0972021
0.0983945
0.0998351
0.101382
0.10277
0.103904
0.104681
0.105137
0.105245
0.105007
0.104417
0.103485
0.102266
0.100839
0.0993207
0.0977294
0.096041
0.0941447
0.0918955
0.0892662
0.086343
0.0832677
0.0802857
0.0775057
0.0749682
0.0725573
0.070068
0.067362
0.0643713
0.0611228
0.0578224
0.0546616
0.0518322
0.0494479
0.0475703
0.0461264
0.0449634
0.0439164
0.0427607
0.0412569
0.0392833
0.0368119
0.0339436
0.0308425
0.0277609
0.0247716
0.0219131
0.019129
0.016311
0.0133786
0.010287
0.00701542
0.00356548
-3.3291e-5
-0.00375833
-0.00754006
-0.0112747
-0.0147735
-0.0178322
-0.0201609
-0.0215322
-0.0217401
-0.0206918
-0.0185867
-0.0157971
-0.0128626
-0.0103305
-0.00863673
-0.00798578
-0.00825676
-0.00919512
-0.0104099
-0.0116112
-0.0126967
-0.013622
-0.0144701
-0.0152917
-0.0161647
-0.0171433
-0.0181845
-0.0190929
-0.0195657
-0.0191029
-0.0170958
-0.0130373
-0.00678772
0.00137418
0.0107062
0.0202632
0.0292386
0.0372047
0.0443016
0.0509417
0.0576196
0.0646798
0.0720315
0.0792078
0.0855167
0.0903002
0.0931792
0.0940425
0.0931274
0.0908102
0.0875282
0.0837351
0.0796081
0.0751495
0.0703444
0.0651451
0.0596562
0.0542906
0.0497541
0.0468783
0.0463539
0.0481607
0.0515488
0.0549306
0.0562856
0.0538416
0.0466543
0.0349215
0.0199255
0.00370905
-0.0116489
-0.0245874
-0.0343141
-0.0408594
-0.0447851
-0.0468812
-0.0479286
-0.0486032
-0.0493505
-0.0503906
-0.0518862
-0.053845
-0.0562695
-0.059098
-0.0621905
-0.0652415
-0.0678601
-0.0695975
-0.0701737
-0.0694805
-0.0678751
-0.0664081
-0.0668685
-0.0715918
-0.0829121
-0.10256
-0.130679
-0.164972
-0.200083
-0.227697
-0.23733
-0.217487
-0.15725
-0.0486276
0.11048
0.313224
0.54176
0.767163
0.953209
1.06385
1.07308
0.973676
0.781174
0.531097
0.269495
0.0400639
-0.127366
-0.222834
-0.255105
-0.244861
-0.215629
-0.185955
-0.165661
-0.156442
-0.155167
-0.1575
-0.160184
-0.161787
-0.162285
-0.162323
-0.162381
-0.162543
-0.162665
-0.162515
-0.161982
-0.160972
-0.159631
-0.158203
-0.156948
-0.156037
-0.155485
-0.155145
-0.154618
-0.153569
-0.151705
-0.149017
-0.145648
-0.141887
-0.138158
-0.134657
-0.13152
-0.128689
-0.12605
-0.123459
-0.120801
-0.118044
-0.115215
-0.112406
-0.109748
-0.10746
-0.105781
-0.105028
-0.105374
-0.106831
-0.109174
-0.111954
-0.114693
-0.116877
-0.118258
-0.118689
-0.118273
-0.11711
-0.115354
-0.113114
-0.110405
-0.107319
-0.104076
-0.100931
-0.0981325
-0.0959397
-0.0944889
-0.0938192
-0.0939035
-0.0947092
-0.0961795
-0.0982013
-0.100633
-0.103214
-0.105629
-0.107567
-0.108808
-0.109359
-0.109269
-0.10877
-0.108118
-0.107552
-0.107301
-0.107524
-0.108152
-0.108912
-0.10926
-0.108419
-0.105488
-0.0997431
-0.0908076
-0.0787504
-0.0641353
-0.0479233
-0.0311715
-0.0148424
0.000377923
0.0141761
0.0265233
0.0376194
0.0476935
0.0568795
0.0652496
0.0728467
0.0796251
0.0855844
0.090701
0.0949074
0.0981797
0.100447
0.101756
0.102264
0.102336
0.102292
0.102502
0.103104
0.104046
0.105061
0.105769
0.105868
0.105199
0.103804
0.101863
0.0995757
0.0971697
0.094698
0.0921722
0.0895747
0.0867871
0.0837313
0.0803167
0.076536
0.0725005
0.0684611
0.0647282
0.0615791
0.0591879
0.0575634
0.0564554
0.0556178
0.0547167
0.0535567
0.0519783
0.050015
0.047762
0.0454285
0.0432435
0.0413619
0.0399069
0.038716
0.0375227
0.0359485
0.0336966
0.0306046
0.0267184
0.0222141
0.0174292
0.0127085
0.00836447
0.00467342
0.00170005
-0.000506678
-0.00212217
-0.00330677
-0.00422408
-0.00500376
-0.00565795
-0.00614938
-0.00642597
-0.00652797
-0.00646487
-0.00636208
-0.00623153
-0.00597289
-0.00554563
-0.00482985
-0.00388395
-0.00281582
-0.00193303
-0.00156737
-0.00185825
-0.00279409
-0.00419242
-0.00575718
-0.00720163
-0.0084529
-0.00961966
-0.0109677
-0.0126839
-0.0149006
-0.0174415
-0.0199165
-0.0218453
-0.0226256
-0.0218323
-0.0190857
-0.0143385
-0.00768098
0.000521696
0.00964736
0.0188361
0.0272633
0.0342651
0.0394962
0.0432173
0.0461666
0.0492554
0.0533775
0.0590488
0.0662536
0.0743406
0.0822969
0.0890158
0.0936229
0.0956461
0.0951029
0.0923068
0.0877716
0.082055
0.0755779
0.0688389
0.0624426
0.0572523
0.0542732
0.0541328
0.056695
0.0609293
0.06483
0.0660342
0.0626924
0.0539311
0.0403542
0.0237829
0.00667841
-0.00856173
-0.0204069
-0.028219
-0.03231
-0.0335108
-0.0328725
-0.0313669
-0.0298044
-0.0287788
-0.0287843
-0.0301002
-0.0328386
-0.0367364
-0.0413278
-0.0458733
-0.0497137
-0.0523401
-0.0534789
-0.0532238
-0.0517406
-0.0493629
-0.0465703
-0.0438249
-0.0417642
-0.0413016
-0.0436546
-0.0503839
-0.0629693
-0.0826836
-0.109837
-0.143016
-0.178321
-0.209203
-0.22675
-0.220493
-0.17967
-0.0953577
0.0369629
0.214307
0.423942
0.642418
0.837856
0.975659
1.02694
0.977322
0.832414
0.617993
0.373551
0.141536
-0.0440181
-0.165242
-0.222372
-0.229744
-0.208349
-0.178016
-0.152216
-0.136646
-0.130966
-0.13187
-0.135555
-0.139233
-0.141513
-0.142
-0.140824
-0.13832
-0.135096
-0.131863
-0.129362
-0.128215
-0.12862
-0.130369
-0.132825
-0.13535
-0.137312
-0.138378
-0.138502
-0.137838
-0.136518
-0.13455
-0.131877
-0.128454
-0.124426
-0.120172
-0.116311
-0.113284
-0.111291
-0.110052
-0.109
-0.107491
-0.105206
-0.102339
-0.0994015
-0.0971028
-0.0960173
-0.0963101
-0.0977607
-0.0998147
-0.10199
-0.103813
-0.105047
-0.105589
-0.105353
-0.104203
-0.102087
-0.0989937
-0.0951671
-0.0910991
-0.0873991
-0.0846458
-0.0831728
-0.0830335
-0.083855
-0.0850562
-0.0859214
-0.0859243
-0.0848873
-0.0829652
-0.0806238
-0.0784976
-0.0769943
-0.0762678
-0.0760262
-0.0758589
-0.0753991
-0.0746297
-0.0740152
-0.074407
-0.0766325
-0.0810905
-0.0874569
-0.0947087
-0.10137
-0.105833
-0.106955
-0.104397
-0.0985693
-0.0904396
-0.0813157
-0.0723678
-0.064364
-0.057508
-0.0514731
-0.0455621
-0.0391497
-0.0315957
-0.0228009
-0.0129472
-0.00263633
0.00751165
0.0169078
0.0251809
0.0323487
0.0385728
0.0440589
0.048874
0.0530689
0.0566661
0.059851
0.0628612
0.0660439
0.0696188
0.0736413
0.077794
0.0816451
0.0848005
0.0870298
0.0884782
0.0895112
0.0906069
0.0921326
0.0940246
0.0960423
0.0976421
0.0982709
0.0974356
0.0949272
0.0908156
0.0854381
0.0794133
0.0734251
0.0681686
0.0641938
0.0617244
0.0605936
0.0603297
0.0603643
0.0602282
0.0596977
0.0588458
0.0578293
0.0566685
0.0552358
0.0531697
0.0502722
0.0464496
0.0421214
0.0379636
0.0345621
0.0322875
0.0310018
0.0301057
0.0288675
0.0267381
0.0235183
0.0194882
0.0151752
0.0111721
0.00780618
0.00509605
0.00279652
0.00064253
-0.00170403
-0.00429572
-0.00711514
-0.0100094
-0.0127422
-0.0149762
-0.0163915
-0.0166139
-0.0155631
-0.0132712
-0.0102308
-0.00719316
-0.00504662
-0.00464393
-0.00648765
-0.0105248
-0.016212
-0.0225525
-0.0283455
-0.0326344
-0.0348386
-0.0350877
-0.0340376
-0.0326906
-0.0318808
-0.0321212
-0.0332918
-0.0348509
-0.0361688
-0.0366952
-0.0362499
-0.0350664
-0.0335308
-0.0321828
-0.0313133
-0.0309768
-0.0309994
-0.031039
-0.0306821
-0.02962
-0.0275774
-0.0244329
-0.0202564
-0.0152385
-0.00977908
-0.00436412
0.000411478
0.00402796
0.006043
0.00634424
0.00514935
0.00314917
0.00146453
0.00130936
0.00392221
0.00997188
0.0193388
0.0310623
0.0435184
0.0549256
0.0638844
0.0696531
0.0723241
0.0725179
0.0709769
0.0682907
0.064572
0.0596992
0.0536745
0.0468553
0.0401018
0.0345763
0.0311225
0.0299545
0.0303848
0.0309517
0.0299085
0.0258999
0.0183763
0.00786292
-0.00441474
-0.0169898
-0.0285643
-0.0382929
-0.0459052
-0.0513512
-0.0548291
-0.0566083
-0.0569757
-0.0563054
-0.0550146
-0.0534754
-0.0519897
-0.0507138
-0.0496615
-0.0488052
-0.0481316
-0.0477782
-0.0478268
-0.0483703
-0.049361
-0.0506306
-0.0518249
-0.0525802
-0.0527562
-0.0523655
-0.0517446
-0.0514782
-0.0525483
-0.0562364
-0.0639453
-0.0771934
-0.0970045
-0.123306
-0.154213
-0.185345
-0.209954
-0.219597
-0.205118
-0.15801
-0.0717245
0.0564442
0.223671
0.419943
0.62718
0.820148
0.969853
1.04937
1.04061
0.940162
0.761825
0.533948
0.292854
0.0737495
-0.0972768
-0.208166
-0.261116
-0.268888
-0.248984
-0.218115
-0.188222
-0.165594
-0.15158
-0.144497
-0.141563
-0.140197
-0.138925
-0.137041
-0.134541
-0.131756
-0.129256
-0.127563
-0.127208
-0.128577
-0.131709
-0.136166
-0.141107
-0.145326
-0.147717
-0.147382
-0.144239
-0.138815
-0.132317
-0.126157
-0.121609
-0.119382
-0.119538
-0.121402
-0.123851
-0.125743
-0.126206
-0.124943
-0.122212
-0.118622
-0.114945
-0.111717
-0.109146
-0.10723
-0.105817
-0.104701
-0.103737
-0.102832
-0.101908
-0.100929
-0.0997531
-0.0984387
-0.0970078
-0.0958254
-0.0952315
-0.0955741
-0.0970366
-0.0994931
-0.102452
-0.105206
-0.107071
-0.107688
-0.10703
-0.105507
-0.103716
-0.102275
-0.101432
-0.10118
-0.101248
-0.101261
-0.100951
-0.100233
-0.0992216
-0.0981588
-0.0973686
-0.0971404
-0.0977208
-0.09931
-0.102061
-0.105843
-0.110372
-0.115141
-0.119396
-0.122306
-0.123148
-0.121452
-0.117166
-0.110533
-0.102145
-0.0927782
-0.0832029
-0.0741239
-0.066131
-0.0595478
-0.0545588
-0.0511647
-0.0491681
-0.0482958
-0.0481498
-0.0482479
-0.0480885
-0.0471444
-0.0449479
-0.0411209
-0.0353338
-0.0273879
-0.0172751
-0.00510679
0.00872974
0.0238022
0.0395168
0.0551874
0.0702495
0.0841265
0.0963808
0.106664
0.114783
0.120693
0.124622
0.126911
0.128205
0.129146
0.130241
0.131883
0.134175
0.136982
0.139995
0.142883
0.14529
0.147011
0.147966
0.148125
0.147536
0.146296
0.144594
0.142545
0.140364
0.138283
0.136399
0.134787
0.133359
0.13195
0.130195
0.127769
0.124384
0.120008
0.114788
0.10925
0.104035
0.0997681
0.0968501
0.0952513
0.0946665
0.0944767
0.0941119
0.0932156
0.0916537
0.089684
0.0876191
0.0858316
0.0845194
0.0838466
0.0836725
0.0838518
0.0841185
0.0842148
0.0839416
0.0830563
0.0815364
0.0793977
0.0768009
0.0739992
0.0712905
0.0687327
0.0663452
0.0638737
0.0610025
0.0575506
0.0534682
0.0489504
0.0443605
0.0401008
0.0365689
0.0338651
0.0321041
0.0311973
0.0310337
0.0313991
0.0321348
0.032928
0.0334618
0.0335302
0.0328685
0.0315048
0.0295391
0.0272599
0.0250331
0.0231458
0.021788
0.0210195
0.0207093
0.0206493
0.0205703
0.0201436
0.0192056
0.0176245
0.0154406
0.0127883
0.00994938
0.00727226
0.00502592
0.0036037
0.00329771
0.00450877
0.00764067
0.0130184
0.0206467
0.0300452
0.0403959
0.0506123
0.0597874
0.0673877
0.0736415
0.0791668
0.0848303
0.0912767
0.0985859
0.106274
0.113402
0.118984
0.122194
0.122738
0.120766
0.116853
0.111722
0.106029
0.100198
0.0943553
0.0884962
0.0825895
0.0767973
0.0716445
0.0679447
0.0665032
0.067682
0.070991
0.0750548
0.0779351
0.0775618
0.0726738
0.062984
0.0493892
0.0336296
0.0176048
0.00290309
-0.00957916
-0.0195323
-0.0270562
-0.0324072
-0.0359091
-0.037961
-0.0389635
-0.0393681
-0.0396408
-0.0400832
-0.0408072
-0.04187
-0.0432331
-0.0448223
-0.0464766
-0.0480175
-0.0491799
-0.0497118
-0.0495017
-0.0487359
-0.0481189
-0.0489519
-0.0529417
-0.0619652
-0.0776224
-0.100685
-0.130392
-0.164071
-0.197098
-0.223441
-0.236984
-0.232942
-0.208999
-0.165305
-0.103419
-0.0242061
0.0738615
0.19483
0.34281
0.517824
0.711135
0.90255
1.06211
1.15633
1.15838
1.0577
0.865241
0.612408
0.342699
0.0995523
-0.0851645
-0.198096
-0.244628
-0.243381
-0.217517
-0.186952
-0.163754
-0.15175
-0.149116
-0.151766
-0.155954
-0.159358
-0.161285
-0.161946
-0.161786
-0.16104
-0.159938
-0.15856
-0.157181
-0.15589
-0.154965
-0.154624
-0.154813
-0.155331
-0.155782
-0.155596
-0.154292
-0.151661
-0.14785
-0.143371
-0.138904
-0.135119
-0.132379
-0.130737
-0.129961
-0.129691
-0.129478
-0.129115
-0.12845
-0.127558
-0.126493
-0.125416
-0.124369
-0.123379
-0.122378
-0.12144
-0.120586
-0.119908
-0.119642
-0.119963
-0.120958
-0.12262
-0.124742
-0.126933
-0.128815
-0.130044
-0.130404
-0.129863
-0.128556
-0.126747
-0.124652
-0.122479
-0.120345
-0.118351
-0.116492
-0.114826
-0.113401
-0.112394
-0.111859
-0.11186
-0.112342
-0.113195
-0.114263
-0.115607
-0.117383
-0.119835
-0.123198
-0.127427
-0.132195
-0.136915
-0.140915
-0.143585
-0.144572
-0.143762
-0.141162
-0.13663
-0.129972
-0.120864
-0.109123
-0.0947313
-0.0783652
-0.0610579
-0.0441282
-0.0287964
-0.0158762
-0.00548245
0.00289775
0.0102038
0.0173817
0.0250984
0.0335357
0.0423862
0.051059
0.0589923
0.0659362
0.0719536
0.0774489
0.0828663
0.0885322
0.0945259
0.100657
0.106457
0.111549
0.115739
0.119058
0.121599
0.123585
0.125156
0.126204
0.126771
0.126746
0.126248
0.125476
0.124681
0.123975
0.123375
0.122765
0.121885
0.120619
0.118928
0.116923
0.114756
0.112493
0.110141
0.107547
0.104531
0.101015
0.0971485
0.0931677
0.0893939
0.086046
0.0832339
0.0808956
0.0789369
0.0773817
0.0761346
0.0753005
0.0748568
0.0746416
0.0743322
0.0736041
0.0721449
0.0697727
0.0665524
0.0626625
0.0584055
0.0539999
0.0496859
0.0455517
0.0415676
0.03767
0.033824
0.029824
0.0256015
0.0212233
0.0169083
0.0130312
0.0100571
0.00835813
0.00802367
0.00860845
0.00951083
0.010065
0.00979125
0.00862226
0.00686987
0.00500018
0.00345489
0.00239797
0.00168442
0.000943964
-0.00016768
-0.00187977
-0.00417489
-0.00690027
-0.00977103
-0.0125102
-0.0150905
-0.0173486
-0.0192704
-0.0207405
-0.0216641
-0.0218544
-0.0212249
-0.0198858
-0.018179
-0.0163807
-0.0148407
-0.0136945
-0.0128667
-0.012187
-0.0114423
-0.0104757
-0.00927622
-0.00788739
-0.00636055
-0.00459362
-0.00237733
0.000673953
0.00488107
0.0104441
0.0172205
0.0246584
0.0320704
0.038612
0.0436536
0.0469777
0.0489549
0.050317
0.0520354
0.0549251
0.0594673
0.065408
0.0720651
0.0783554
0.083173
0.085805
0.0859673
0.0838975
0.0802248
0.0756039
0.0707232
0.0661386
0.062359
0.0599657
0.0594192
0.0608186
0.0636703
0.0667931
0.0683958
0.0666072
0.0600839
0.0484984
0.032664
0.0145066
-0.00365988
-0.019661
-0.0320546
-0.0402012
-0.0443668
-0.0452694
-0.0438598
-0.0411676
-0.0380447
-0.0352114
-0.0332715
-0.0325354
-0.0331287
-0.034915
-0.0375109
-0.0404819
-0.0434518
-0.0461552
-0.0485579
-0.0506374
-0.0524186
-0.0538916
-0.0550365
-0.0559427
-0.0568458
-0.0585254
-0.0622061
-0.0695803
-0.0824428
-0.102134
-0.128858
-0.161171
-0.19529
-0.224905
-0.241624
-0.235664
-0.196666
-0.115362
0.0140318
0.190968
0.405537
0.636701
0.853242
1.0186
1.09937
1.07494
0.945027
0.73181
0.474746
0.219959
0.00742718
-0.13895
-0.215189
-0.234204
-0.218024
-0.188939
-0.16281
-0.146826
-0.140914
-0.141396
-0.14415
-0.146453
-0.147431
-0.147457
-0.147148
-0.14692
-0.146747
-0.146418
-0.14571
-0.144553
-0.143062
-0.141481
-0.140153
-0.139432
-0.13949
-0.140211
-0.141185
-0.141724
-0.141203
-0.139164
-0.135591
-0.130895
-0.125904
-0.121427
-0.118032
-0.115904
-0.114814
-0.114264
-0.113811
-0.113207
-0.112469
-0.111886
-0.111733
-0.112144
-0.113007
-0.113914
-0.114377
-0.114041
-0.112744
-0.110701
-0.108275
-0.105955
-0.104059
-0.102673
-0.101615
-0.100586
-0.099234
-0.0973239
-0.0949241
-0.0922434
-0.0897329
-0.087838
-0.0869476
-0.0871992
-0.0884302
-0.0902437
-0.0921778
-0.0938145
-0.0949973
-0.0958023
-0.0964709
-0.0972708
-0.0983495
-0.0996234
-0.10093
-0.10209
-0.103031
-0.103755
-0.104405
-0.105153
-0.106087
-0.107103
-0.107939
-0.108258
-0.107548
-0.105385
-0.101353
-0.0951602
-0.0866944
-0.0760407
-0.0635725
-0.0498941
-0.0359404
-0.0226509
-0.0109104
-0.00126007
0.00623608
0.0119483
0.0166883
0.0213157
0.0265154
0.0326404
0.0396305
0.0470611
0.0544462
0.0614063
0.0677482
0.0735586
0.079028
0.0843869
0.0897003
0.0949102
0.099829
0.104197
0.107875
0.110788
0.11296
0.114443
0.115258
0.115344
0.114543
0.112735
0.109934
0.106457
0.102821
0.0995761
0.0971169
0.0954697
0.0943198
0.0931264
0.0913168
0.0885261
0.0847811
0.0804405
0.0760541
0.0721678
0.0691981
0.0673628
0.0666173
0.0667485
0.0673841
0.0680796
0.0684293
0.0679799
0.0664578
0.0637401
0.0599639
0.0554236
0.0506493
0.0461632
0.042269
0.0391113
0.0364941
0.0340897
0.0315686
0.0287544
0.0257018
0.0225298
0.0194293
0.0163674
0.0132121
0.00973335
0.00578087
0.00138122
-0.00322987
-0.00760904
-0.0112896
-0.0139551
-0.0155472
-0.0161749
-0.0161507
-0.0158599
-0.0156761
-0.0158063
-0.0163677
-0.0173169
-0.0184756
-0.0197094
-0.0208431
-0.0218099
-0.0226392
-0.023385
-0.0242078
-0.0251409
-0.0261905
-0.0273213
-0.0284673
-0.0296752
-0.0310063
-0.0324953
-0.0340827
-0.0356799
-0.0370434
-0.0379825
-0.0384186
-0.0383419
-0.0377798
-0.036859
-0.0355653
-0.0339586
-0.0320428
-0.0299468
-0.0278877
-0.0260582
-0.0245649
-0.0232643
-0.0218069
-0.0196693
-0.0163647
-0.0115083
-0.00512038
0.00243195
0.0104584
0.0183157
0.0254184
0.0315846
0.0370591
0.0424031
0.0481743
0.0548195
0.0623974
0.070492
0.0782595
0.0847224
0.0890271
0.0906925
0.0896106
0.0861676
0.081134
0.0754011
0.0700186
0.0660012
0.064122
0.0645334
0.0666304
0.0688474
0.0691068
0.0654371
0.0566992
0.043008
0.0259791
0.0081026
-0.00812247
-0.020949
-0.0298724
-0.0355781
-0.0392719
-0.042112
-0.0446839
-0.04695
-0.0485829
-0.0492461
-0.0488491
-0.0477127
-0.0464382
-0.0454393
-0.0449538
-0.0449043
-0.045035
-0.0451087
-0.0449827
-0.0446523
-0.0442188
-0.0438756
-0.0438116
-0.0443377
-0.0459537
-0.0496707
-0.0569314
-0.069529
-0.0890783
-0.116232
-0.149932
-0.186656
-0.220363
-0.242969
-0.24572
-0.220024
-0.158537
-0.0561256
0.0888284
0.272125
0.481739
0.696392
0.886658
1.01969
1.06713
1.01385
0.864347
0.64365
0.391214
0.150424
-0.0433498
-0.171055
-0.23237
-0.241859
-0.221262
-0.191272
-0.165944
-0.151041
-0.145882
-0.146623
-0.149093
-0.150573
-0.150171
-0.148232
-0.145687
-0.143329
-0.141641
-0.140683
-0.140209
-0.139842
-0.139252
-0.138252
-0.136852
-0.135186
-0.133387
-0.131544
-0.129694
-0.127836
-0.126107
-0.124698
-0.123792
-0.123538
-0.12391
-0.124728
-0.125637
-0.126252
-0.126142
-0.124985
-0.122524
-0.118765
-0.113924
-0.108479
-0.102943
-0.0978419
-0.0935513
-0.0902332
-0.0879124
-0.086476
-0.0857686
-0.08574
-0.0862643
-0.0873027
-0.0888238
-0.0908159
-0.0932925
-0.0962467
-0.0996223
-0.103255
-0.106753
-0.109619
-0.111261
-0.111241
-0.109378
-0.10585
-0.101174
-0.0960349
-0.0911761
-0.0870852
-0.0840501
-0.0820574
-0.08097
-0.0805891
-0.0806939
-0.081243
-0.0822501
-0.0838239
-0.0860827
-0.089115
-0.0928751
-0.0972273
-0.101863
-0.106287
-0.109947
-0.112156
-0.112334
-0.109995
-0.104945
-0.097265
-0.0873546
-0.0757912
-0.0632002
-0.0501891
-0.0372315
-0.0246159
-0.0125869
-0.00138127
0.00878871
0.0177011
0.0252179
0.0313858
0.0363986
0.040729
0.0448078
0.0489839
0.0533607
0.0577834
0.0618794
0.0652867
0.0678107
0.0695353
0.070835
0.072184
0.0740059
0.0764559
0.0794294
0.0825195
0.0851929
0.0869485
0.0875613
0.0869039
0.0852823
0.0830506
0.0806468
0.0784872
0.0766982
0.0753206
0.0741833
0.0729358
0.0711822
0.0686212
0.065051
0.0605441
0.0553592
0.0498177
0.044349
0.0392366
0.0347944
0.0312859
0.0289518
0.0279539
0.0282225
0.0294307
0.0309368
0.0320351
0.0320991
0.0308829
0.0284385
0.025195
0.0216222
0.0180908
0.0148214
0.011852
0.00914051
0.00664587
0.00430676
0.00202453
-0.000385363
-0.00319431
-0.00661522
-0.0106918
-0.0153272
-0.0201749
-0.0247477
-0.0285501
-0.0311763
-0.0324082
-0.0321109
-0.0303142
-0.0271939
-0.0230712
-0.0185429
-0.0143565
-0.011388
-0.0103236
-0.0114904
-0.0146439
-0.0189683
-0.023338
-0.0267014
-0.028452
-0.0284968
-0.0274101
-0.0261425
-0.025636
-0.0264562
-0.0286701
-0.0317656
-0.034878
-0.0372503
-0.0384001
-0.0383542
-0.0374972
-0.036452
-0.0356616
-0.0352137
-0.034702
-0.0333557
-0.0303802
-0.0252586
-0.0181385
-0.0097205
-0.00109146
0.00658993
0.0125547
0.0168188
0.0200197
0.0232609
0.0276185
0.0337895
0.0417238
0.0505009
0.0587184
0.0648155
0.0675627
0.0664508
0.0617899
0.0546951
0.0467553
0.0396141
0.0346483
0.0327979
0.0342861
0.0386256
0.044562
0.0502223
0.0533465
0.051965
0.0447317
0.0316424
0.013982
-0.006024
-0.0255125
-0.042018
-0.0538725
-0.0606455
-0.0631334
-0.0628029
-0.0614435
-0.0606655
-0.0614717
-0.0639852
-0.0675476
-0.0710718
-0.0735966
-0.0745062
-0.0739067
-0.0724041
-0.0706901
-0.0692647
-0.067986
-0.0662254
-0.0631964
-0.0584415
-0.0521974
-0.045642
-0.0406358
-0.0393964
-0.0441568
-0.0566601
-0.0779765
-0.108101
-0.145144
-0.184917
-0.220347
-0.241334
-0.235328
-0.189287
-0.0929038
0.0573481
0.25418
0.477164
0.69403
0.866318
0.958648
0.949184
0.836954
0.643457
0.407259
0.172878
-0.021466
-0.153426
-0.219826
-0.233269
-0.21464
-0.184716
-0.158195
-0.141547
-0.134721
-0.134093
-0.135661
-0.136758
-0.136593
-0.13578
-0.13529
-0.135894
-0.137704
-0.140245
-0.142558
-0.143718
-0.143103
-0.140735
-0.137222
-0.133576
-0.130721
-0.129175
-0.128844
-0.129059
-0.128966
-0.127888
-0.125629
-0.122504
-0.119222
-0.116626
-0.115368
-0.115751
-0.117588
-0.120321
-0.123144
-0.125008
-0.125114
-0.122907
-0.118285
-0.111601
-0.1036
-0.09524
-0.0875131
-0.0812427
-0.076974
-0.0748652
-0.0748159
-0.0763239
-0.0787499
-0.0815404
-0.0842151
-0.0866324
-0.0887703
-0.0907498
-0.0926483
-0.0943365
-0.0955149
-0.0957994
-0.0950296
-0.0932825
-0.0909561
-0.0887754
-0.087443
-0.0874515
-0.0889126
-0.0915035
-0.0947466
-0.0981027
-0.101172
-0.10378
-0.105893
-0.107578
-0.108817
-0.109666
-0.110321
-0.111102
-0.112495
-0.11492
-0.11852
-0.122946
-0.127278
-0.130167
-0.130166
-0.12614
-0.117586
-0.104717
-0.0885292
-0.0704006
-0.0518389
-0.0340787
-0.0178805
-0.00359422
0.00899209
0.0203109
0.030897
0.0413513
0.0520195
0.0630289
0.0741688
0.0849227
0.094668
0.102766
0.10885
0.112921
0.115335
0.116729
0.117752
0.118852
0.120233
0.121696
0.12295
0.123576
0.123431
0.122425
0.120836
0.118947
0.117003
0.115265
0.113733
0.112284
0.110871
0.109238
0.1072
0.104561
0.101198
0.0971869
0.0927516
0.0883501
0.084504
0.0816537
0.0799519
0.0792388
0.0790954
0.0790157
0.0785403
0.0774772
0.0759303
0.0742478
0.0727471
0.0716868
0.0710146
0.0704456
0.0697391
0.0684797
0.066486
0.0637845
0.0604216
0.0565872
0.052468
0.0483239
0.0445041
0.0413712
0.039299
0.0385019
0.0389042
0.0401224
0.0416277
0.0427904
0.043218
0.0426583
0.0412235
0.0392304
0.0371212
0.0352936
0.0340831
0.0335839
0.0337091
0.034226
0.034586
0.0343455
0.0331564
0.030987
0.0281924
0.0254145
0.0234013
0.0226806
0.0233725
0.0252839
0.0277448
0.030065
0.0316688
0.0322262
0.0316668
0.0302002
0.0280557
0.0256429
0.0232358
0.0211049
0.01946
0.0184107
0.0179526
0.0179596
0.0182962
0.0188196
0.0196053
0.0209087
0.0230872
0.0265645
0.0314892
0.0377369
0.04491
0.0525314
0.0601582
0.0676385
0.0751799
0.0830824
0.0915308
0.100294
0.108675
0.115704
0.12037
0.122029
0.120614
0.116693
0.111194
0.105273
0.0998447
0.0956298
0.0930056
0.0922391
0.0932886
0.0958256
0.0991807
0.102094
0.103192
0.10134
0.0959439
0.0872237
0.0761951
0.0640446
0.0518406
0.0401496
0.0289388
0.0180078
0.00729294
-0.00289676
-0.0118474
-0.018873
-0.0236214
-0.0262393
-0.0272802
-0.0275738
-0.0276908
-0.0280034
-0.0284533
-0.0289445
-0.0293852
-0.0297946
-0.0303981
-0.0314321
-0.0329372
-0.0347525
-0.0366111
-0.0383542
-0.0399101
-0.0416103
-0.0443509
-0.0494734
-0.0586868
-0.0736466
-0.0953146
-0.123469
-0.155619
-0.186578
-0.208507
-0.211807
-0.186173
-0.122089
-0.0129797
0.143036
0.340608
0.565597
0.794569
0.996544
1.13793
1.19024
1.13791
0.984314
0.752893
0.482311
0.216585
-0.00614259
-0.162452
-0.247482
-0.272375
-0.257825
-0.22598
-0.193816
-0.170563
-0.158286
-0.154606
-0.155527
-0.15776
-0.159485
-0.160172
-0.160058
-0.159514
-0.158884
-0.158385
-0.158082
-0.15786
-0.157663
-0.157354
-0.156897
-0.156353
-0.155753
-0.155123
-0.154378
-0.153311
-0.151669
-0.1494
-0.146532
-0.143245
-0.139896
-0.136771
-0.134105
-0.131892
-0.130017
-0.128128
-0.125993
-0.123272
-0.11991
-0.115985
-0.111756
-0.107676
-0.104299
-0.10206
-0.101217
-0.101814
-0.103632
-0.106315
-0.109513
-0.112864
-0.116115
-0.119076
-0.121567
-0.123386
-0.124271
-0.12408
-0.122628
-0.120074
-0.116666
-0.112802
-0.108908
-0.105419
-0.102545
-0.10049
-0.0991738
-0.0984664
-0.09831
-0.0986662
-0.0995043
-0.100951
-0.103041
-0.105654
-0.108709
-0.111974
-0.115244
-0.118429
-0.121377
-0.124086
-0.126483
-0.128392
-0.129566
-0.129501
-0.12782
-0.124064
-0.117909
-0.10933
-0.0985419
-0.0859437
-0.0720921
-0.0575365
-0.0426971
-0.0279207
-0.0133943
0.000732721
0.0142895
0.0270428
0.0387352
0.0491456
0.0581936
0.0659141
0.072577
0.078587
0.0842518
0.089845
0.0954787
0.101116
0.106653
0.111982
0.116956
0.121509
0.125403
0.128441
0.130535
0.131566
0.131573
0.130782
0.129406
0.127612
0.125591
0.123361
0.120814
0.117888
0.114556
0.110805
0.106785
0.102722
0.0988533
0.0954894
0.0929321
0.0913818
0.090882
0.091234
0.0920171
0.0926421
0.0925704
0.0914054
0.0892617
0.0864949
0.0836262
0.0812435
0.0796088
0.0786319
0.0780382
0.0774765
0.0764841
0.074855
0.0724505
0.0691729
0.0650163
0.0600805
0.0544285
0.0482616
0.041957
0.0358829
0.0304541
0.0261149
0.0231078
0.0214936
0.0210383
0.021238
0.0215217
0.0214413
0.0207011
0.0194652
0.0180251
0.0167587
0.0159004
0.0154562
0.015128
0.0146323
0.0137743
0.0124843
0.0108532
0.0090392
0.0070604
0.00479736
0.00215456
-0.000912638
-0.00420015
-0.00731525
-0.00980076
-0.0112801
-0.0116856
-0.0112373
-0.0104333
-0.00980905
-0.00981128
-0.0105671
-0.0119439
-0.0136054
-0.0150774
-0.0160159
-0.0162328
-0.0157444
-0.0146563
-0.0133017
-0.0118928
-0.0106817
-0.00980796
-0.00941
-0.00957312
-0.0102853
-0.0114703
-0.0126881
-0.0133525
-0.0126497
-0.00980883
-0.00432901
0.00384288
0.0140953
0.0253673
0.0363787
0.0461798
0.0541999
0.0606151
0.0660803
0.0714121
0.0771359
0.0832613
0.0892538
0.0941919
0.0972974
0.0980312
0.0964612
0.0930629
0.0885135
0.0835265
0.0786107
0.0741651
0.0705529
0.068273
0.0677158
0.0690236
0.071654
0.0743038
0.0752951
0.0729529
0.0662339
0.0550914
0.0406079
0.0245153
0.008699
-0.00538368
-0.0168903
-0.0255825
-0.0316749
-0.0354897
-0.0375165
-0.0381533
-0.0379701
-0.0374595
-0.0370347
-0.0371513
-0.0381456
