0.697846
0.414491
0.154361
-0.0468335
-0.172958
-0.228364
-0.232144
-0.209184
-0.181081
-0.160876
-0.152385
-0.153189
-0.158445
-0.163994
-0.167615
-0.169021
-0.169079
-0.168552
-0.167837
-0.166794
-0.165327
-0.16324
-0.160592
-0.157545
-0.154446
-0.151592
-0.149215
-0.147513
-0.146553
-0.146262
-0.146442
-0.146822
-0.147102
-0.146852
-0.145817
-0.143988
-0.141553
-0.138864
-0.136309
-0.134152
-0.132511
-0.13127
-0.130182
-0.129086
-0.127901
-0.126729
-0.125605
-0.124636
-0.123734
-0.122737
-0.121312
-0.119217
-0.11628
-0.112624
-0.108589
-0.10485
-0.102151
-0.101089
-0.101847
-0.104229
-0.107614
-0.111125
-0.113952
-0.115588
-0.115928
-0.115205
-0.113844
-0.112308
-0.110894
-0.109681
-0.108607
-0.107527
-0.106362
-0.105088
-0.103808
-0.102638
-0.101704
-0.101115
-0.100879
-0.100991
-0.101506
-0.102414
-0.103698
-0.105331
-0.107181
-0.108987
-0.11045
-0.111095
-0.110439
-0.10792
-0.103027
-0.0955435
-0.0854644
-0.0733144
-0.0600288
-0.0467892
-0.0348498
-0.0251212
-0.0179753
-0.0131046
-0.00960388
-0.00634324
-0.00221618
0.0035224
0.0110333
0.0200902
0.0301204
0.0404456
0.0504679
0.0597785
0.0681246
0.0753911
0.0816837
0.0870665
0.0916488
0.0954798
0.0984532
0.100487
0.101426
0.101265
0.100222
0.0985248
0.0966378
0.0948409
0.0932674
0.0918467
0.0904082
0.0888524
0.087149
0.0855818
0.084463
0.0840172
0.0841807
0.0846374
0.0849163
0.0845887
0.0834142
0.0814881
0.0790014
0.0761974
0.0732258
0.0700112
0.066483
0.06263
0.0586129
0.0547399
0.0512604
0.0484424
0.0462608
0.0445457
0.0430138
0.0414498
0.0396064
0.037375
0.0347734
0.0317947
0.0286186
0.0254307
0.0225305
0.0202349
0.0187568
0.0180267
0.0177602
0.0174881
0.016657
0.0148747
0.0120281
0.0082886
0.00403673
-0.000344737
-0.00454208
-0.00835409
-0.0116071
-0.0142314
-0.0161509
-0.0173752
-0.0179787
-0.0181981
-0.0182582
-0.0183866
-0.0186866
-0.0190185
-0.0191855
-0.0189462
-0.0181475
-0.0167918
-0.015
-0.0129826
-0.0109409
-0.00907055
-0.00742207
-0.00606985
-0.00520658
-0.00498152
-0.00562154
-0.00726603
-0.00997425
-0.0135213
-0.017531
-0.0214982
-0.0249112
-0.0273376
-0.0286373
-0.0289102
-0.0285168
-0.0278405
-0.0271885
-0.0266714
-0.0261654
-0.025374
-0.0238774
-0.0211765
-0.0169955
-0.011034
-0.00324472
0.00629959
0.017168
0.0285835
0.0397354
0.0498851
0.0585897
0.0658792
0.0722502
0.0782452
0.0843306
0.090505
0.0962725
0.100727
0.103059
0.102683
0.0996313
0.0944193
0.0879302
0.0811647
0.0750198
0.0701782
0.0672047
0.0664849
0.0683773
0.0727654
0.0790453
0.0858711
0.0913919
0.0938066
0.0918016
0.0849945
0.0739336
0.0599158
0.0444323
0.0288534
0.0139665
0.000171322
-0.0123833
-0.0235922
-0.0333131
-0.0413146
-0.0474296
-0.0516993
-0.0542975
-0.0556115
-0.0561731
-0.0564681
-0.0568677
-0.0575997
-0.0587447
-0.0601857
-0.0618047
-0.0633522
-0.0645095
-0.0647844
-0.0637369
-0.061174
-0.0572523
-0.0528994
-0.0499369
-0.0509328
-0.0586205
-0.0752408
-0.101487
-0.135715
-0.17355
-0.20784
-0.22969
-0.229813
-0.200389
-0.136461
-0.0367149
0.0966171
0.258652
0.442768
0.640651
0.841917
1.03263
1.19421
1.30418
1.33985
1.28496
1.13655
0.909082
0.633521
0.350635
0.100563
-0.087629
-0.202422
-0.250458
-0.251119
-0.227999
-0.201071
-0.182199
-0.174696
-0.176118
-0.181951
-0.188277
-0.192989
-0.195702
-0.197007
-0.197478
-0.19744
-0.196771
-0.195396
-0.193181
-0.190106
-0.18636
-0.18227
-0.178256
-0.174706
-0.171881
-0.169864
-0.168563
-0.167795
-0.167395
-0.167271
-0.167286
-0.167415
-0.167493
-0.167354
-0.166864
-0.165904
-0.164544
-0.162879
-0.161113
-0.159427
-0.157893
-0.156555
-0.155449
-0.154503
-0.15361
-0.152552
-0.151065
-0.148941
-0.145979
-0.142273
-0.138216
-0.134329
-0.131317
-0.129757
-0.129958
-0.131811
-0.13485
-0.138388
-0.141728
-0.144343
-0.145999
-0.146819
-0.147096
-0.147278
-0.147633
-0.148259
-0.149133
-0.150056
-0.150835
-0.151361
-0.151597
-0.151649
-0.151571
-0.151369
-0.151066
-0.150666
-0.150192
-0.149749
-0.149346
-0.148932
-0.148267
-0.147001
-0.144799
-0.141349
-0.136458
-0.129992
-0.121683
-0.111204
-0.098227
-0.0824665
-0.0641496
-0.0439706
-0.0230576
-0.00289097
0.0152387
0.0304094
0.0423185
0.0513126
0.0581731
0.063872
0.0692151
0.074694
0.0803968
0.086071
0.0911851
0.0951692
0.0975721
0.0982048
0.0971619
0.0948143
0.0917496
0.0886019
0.0857353
0.0832818
0.0811448
0.0789908
0.0766492
0.0740712
0.0714451
0.0691676
0.0673773
0.0660428
0.0648365
0.0632923
0.0610655
0.0579794
0.0543642
0.0507824
0.0479372
0.0463639
0.0463023
0.0475064
0.0493671
0.0511184
0.0518813
0.051046
0.0482613
0.0436631
0.0377917
0.0315463
0.0259452
0.0218552
0.0196991
0.0194257
0.0205164
0.0220933
0.0233802
0.0237755
0.0230951
0.0213701
0.0187445
0.0154441
0.0115896
0.0073368
0.0030012
-0.00100791
-0.00424814
-0.00629338
-0.0070265
-0.00674008
-0.00588207
-0.00508877
-0.00469938
-0.00484884
-0.00533507
-0.00582873
-0.00610837
-0.00623848
-0.0065866
-0.00761765
-0.00967665
-0.0127778
-0.0164253
-0.0198609
-0.022393
-0.0235665
-0.0233638
-0.0221888
-0.0206665
-0.0193877
-0.018762
-0.0188711
-0.019556
-0.0205657
-0.0217202
-0.022854
-0.0238852
-0.0245528
-0.0246141
-0.0237515
-0.0217146
-0.0185114
-0.0143992
-0.00982522
-0.00524102
-0.000881293
0.00330295
0.00775012
0.0128136
0.0186902
0.0251559
0.0316407
0.0373963
0.0419854
0.0453969
0.0482035
0.0513361
0.0555708
0.0610951
0.0673746
0.0732312
0.0773689
0.0788561
0.0773242
0.073264
0.0676393
0.0615941
0.0562194
0.0523238
0.0503939
0.0507041
0.053038
0.0567691
0.0605417
0.0626706
0.0613515
0.0551826
0.043678
0.0275531
0.0085507
-0.0109218
-0.0284958
-0.0423566
-0.0518052
-0.0571239
-0.0593869
-0.0599447
-0.0601752
-0.0610451
-0.0628997
-0.0656956
-0.0690186
-0.0722654
-0.0749802
-0.0768432
-0.0777082
-0.0776044
-0.0765061
-0.0745109
-0.071626
-0.0680896
-0.0643565
-0.061348
-0.060368
-0.0630667
-0.071132
-0.0859479
-0.108158
-0.137442
-0.171892
-0.207987
-0.240549
-0.263225
-0.269074
-0.251185
-0.202914
-0.118306
0.00651302
0.171119
0.368196
0.580974
0.783228
0.942533
1.02737
1.01643
0.906301
0.714591
0.476076
0.233434
0.0252534
-0.12362
-0.206702
-0.233812
-0.224377
-0.199221
-0.174112
-0.156934
-0.148824
-0.146902
-0.147589
-0.148209
-0.147764
-0.146502
-0.14512
-0.144078
-0.143558
-0.143262
-0.142887
-0.142207
-0.14109
-0.13977
-0.138452
-0.137335
-0.1365
-0.13572
-0.134717
-0.133309
-0.131382
-0.129111
-0.126816
-0.124747
-0.123046
-0.121652
-0.120376
-0.119115
-0.117702
-0.116095
-0.114241
-0.11219
-0.110058
-0.108077
-0.106515
-0.105698
-0.105731
-0.106406
-0.107296
-0.107808
-0.107516
-0.106384
-0.10466
-0.102884
-0.101447
-0.100419
-0.0995832
-0.0985076
-0.0969019
-0.0947775
-0.0925217
-0.090753
-0.0900028
-0.0905227
-0.0920897
-0.0941896
-0.0961705
-0.097462
-0.0977769
-0.0972652
-0.0963198
-0.0955669
-0.0955198
-0.0964917
-0.0985287
-0.101441
-0.104983
-0.108851
-0.112878
-0.116837
-0.120622
-0.12408
-0.127162
-0.129878
-0.13219
-0.134052
-0.135116
-0.134747
-0.132019
-0.125939
-0.115859
-0.101558
-0.0835699
-0.0631016
-0.0417879
-0.0213447
-0.00327784
0.0115637
0.0229057
0.0311738
0.0372085
0.0420795
0.0467186
0.0517836
0.0574853
0.0635714
0.069518
0.0746805
0.0785691
0.0810392
0.0823549
0.0831573
0.0841422
0.0858111
0.088124
0.0905825
0.0923796
0.0926666
0.091019
0.0876707
0.0833579
0.0791161
0.0758108
0.0738238
0.0730763
0.0729975
0.072984
0.0724343
0.0710754
0.0687192
0.0653431
0.0610304
0.0559681
0.0505643
0.0453441
0.0408448
0.0374434
0.0351751
0.0337659
0.03266
0.0314593
0.0298427
0.0278044
0.0255316
0.0233351
0.0213947
0.0198213
0.0185525
0.0175525
0.0168743
0.016646
0.0171183
0.0184064
0.0204949
0.0229982
0.0253774
0.0269594
0.0271353
0.0256935
0.0225966
0.0181216
0.0127034
0.00676059
0.000647002
-0.00522991
-0.0104026
-0.0143572
-0.0166528
-0.0170806
-0.0157943
-0.0133409
-0.0104677
-0.00795562
-0.00628263
-0.00550873
-0.00532896
-0.00529548
-0.00494594
-0.00421762
-0.00341409
-0.00295007
-0.00346251
-0.0053165
-0.00854834
-0.0127882
-0.0172428
-0.0208953
-0.0227756
-0.0222164
-0.0190413
-0.0137122
-0.0070242
-2.35232e-5
0.00655909
0.0124064
0.0177973
0.0233151
0.0295083
0.0367091
0.0448197
0.0533502
0.0616211
0.0689732
0.0747957
0.0787883
0.0806798
0.0802451
0.0773312
0.072071
0.0649452
0.056824
0.0488315
0.0421358
0.0374925
0.0350374
0.0343318
0.0347572
0.0356811
0.0367752
0.0377907
0.0384639
0.0381494
0.0358896
0.0307385
0.0220281
0.0098364
-0.00483398
-0.0202806
-0.0344984
-0.0458583
-0.0535122
-0.057532
-0.0587799
-0.0584738
-0.057794
-0.0574508
-0.0576697
-0.0582265
-0.0589732
-0.0598177
-0.061028
-0.0627967
-0.06507
-0.0672139
-0.0684128
-0.0678767
-0.065425
-0.0619407
-0.0594268
-0.0606739
-0.0684423
-0.084767
-0.110153
-0.143027
-0.179198
-0.211842
-0.231908
-0.228844
-0.19186
-0.111715
0.0168516
0.192264
0.40417
0.632436
0.848649
1.02015
1.11693
1.119
1.02237
0.841023
0.604365
0.350178
0.115333
-0.0722485
-0.198654
-0.264489
-0.281502
-0.266916
-0.237938
-0.207561
-0.183362
-0.16772
-0.159578
-0.156159
-0.154747
-0.153608
-0.15219
-0.150572
-0.149146
-0.148072
-0.147191
-0.146172
-0.144701
-0.142665
-0.140322
-0.13813
-0.136444
-0.135501
-0.135127
-0.134996
-0.134647
-0.133805
-0.132387
-0.130522
-0.128382
-0.126223
-0.124141
-0.122227
-0.12045
-0.118901
-0.11765
-0.116751
-0.11616
-0.115612
-0.114714
-0.112984
-0.110221
-0.10647
-0.102165
-0.0979995
-0.0946044
-0.0924256
-0.0916175
-0.091925
-0.0929079
-0.0940476
-0.0949012
-0.0951372
-0.094624
-0.0934232
-0.0916997
-0.0897226
-0.0877317
-0.0859356
-0.0845041
-0.0834118
-0.0826236
-0.0820822
-0.0816977
-0.081472
-0.0813648
-0.0814696
-0.0817834
-0.0823807
-0.0833999
-0.0850041
-0.0874409
-0.0908731
-0.095345
-0.100787
-0.106969
-0.113619
-0.120546
-0.127649
-0.134826
-0.141753
-0.14776
-0.15189
-0.153006
-0.150151
-0.142816
-0.131211
-0.116301
-0.0995179
-0.082459
-0.0665097
-0.0525233
-0.0407162
-0.0308113
-0.022173
-0.0140634
-0.00586689
0.00274166
0.0118008
0.0211017
0.0303116
0.0391326
0.0473002
0.0547565
0.0615637
0.0678586
0.0738454
0.0795619
0.0850398
0.0902105
0.0950205
0.099428
0.103451
0.107171
0.110657
0.113936
0.117
0.119703
0.121842
0.123202
0.123635
0.123062
0.12151
0.119133
0.116174
0.1129
0.109526
0.106183
0.102985
0.0999229
0.0969931
0.0942035
0.0914864
0.08893
0.0865816
0.0844972
0.0826624
0.0810634
0.0795268
0.0778313
0.0758035
0.073411
0.0707034
0.0678968
0.0653304
0.0633704
0.0621913
0.0618157
0.0620031
0.0624287
0.0626631
0.062381
0.0614417
0.0598266
0.0577145
0.0552209
0.0524025
0.049354
0.0460861
0.0425987
0.0389874
0.0354179
0.0322018
0.0296141
0.0278555
0.026989
0.0269088
0.0271596
0.0272698
0.0267831
0.0255471
0.023611
0.0214278
0.0195358
0.0183647
0.018103
0.0186618
0.0197093
0.0208677
0.0218627
0.0225015
0.0228474
0.0229178
0.0226915
0.0220443
0.0207802
0.0187509
0.0159675
0.0126247
0.009105
0.00588016
0.00342119
0.00190463
0.00137872
0.00163348
0.00236873
0.00324234
0.00411138
0.00496165
0.00592825
0.00729142
0.00922827
0.0118344
0.0151003
0.0189641
0.0233688
0.0282789
0.0336015
0.0393416
0.0452689
0.0511554
0.0567196
0.0618198
0.066454
0.070845
0.0751972
0.0797367
0.0844462
0.089164
0.0935325
0.0970503
0.099267
0.0998605
0.0987952
0.0962308
0.0925703
0.0882914
0.0839355
0.0801043
0.0773483
0.0761555
0.0768198
0.0790544
0.081947
0.0840205
0.0835311
0.0790117
0.0697559
0.0560815
0.0393042
0.0212839
0.00399883
-0.0110576
-0.0230243
-0.0317068
-0.0374534
-0.0408859
-0.0427828
-0.0439126
-0.0448445
-0.0459807
-0.0473485
-0.0487144
-0.0496725
-0.0499185
-0.049273
-0.0479335
-0.0463838
-0.045135
-0.0445229
-0.0446552
-0.0451519
-0.0454671
-0.0450814
-0.0437965
-0.0418853
-0.0402211
-0.0402616
-0.0436903
-0.0523442
-0.0676148
-0.0901439
-0.119299
-0.152771
-0.186126
-0.212931
-0.225046
-0.213723
-0.170262
-0.087135
0.0406114
0.213444
0.42494
0.659624
0.892249
1.08975
1.21715
1.2462
1.16447
0.981148
0.726644
0.445284
0.183345
-0.0231025
-0.156548
-0.219287
-0.228665
-0.208414
-0.179993
-0.15722
-0.145278
-0.143002
-0.146473
-0.151817
-0.156594
-0.160077
-0.162349
-0.163806
-0.164569
-0.164565
-0.163801
-0.162277
-0.160242
-0.157917
-0.155621
-0.15362
-0.151999
-0.15079
-0.149827
-0.14883
-0.147609
-0.14594
-0.14379
-0.14115
-0.138195
-0.135037
-0.13179
-0.128534
-0.125312
-0.122114
-0.118997
-0.11595
-0.113081
-0.110559
-0.108665
-0.107758
-0.108026
-0.109599
-0.11227
-0.11561
-0.118987
-0.121802
-0.123689
-0.124487
-0.124329
-0.123546
-0.122311
-0.12091
-0.119359
-0.117647
-0.115738
-0.11367
-0.111469
-0.109321
-0.107366
-0.105613
-0.104047
-0.10249
-0.100894
-0.0992862
-0.0977669
-0.0965891
-0.096031
-0.0962327
-0.0970658
-0.0982641
-0.0994927
-0.100424
-0.101003
-0.101458
-0.102192
-0.103661
-0.106205
-0.109747
-0.113899
-0.118029
-0.121271
-0.122856
-0.122175
-0.118787
-0.112462
-0.103359
-0.0917905
-0.0785721
-0.0646977
-0.0512541
-0.0393495
-0.0297139
-0.0226084
-0.0177828
-0.014616
-0.0122281
-0.00962817
-0.00608249
-0.00107386
0.00563096
0.0139221
0.0235224
0.0339913
0.0448928
0.0556968
0.0659039
0.075069
0.0828598
0.0891282
0.0939638
0.0975222
0.100068
0.101731
0.102681
0.102976
0.102619
0.101807
0.100705
0.0995116
0.0984349
0.0975262
0.0967793
0.0960329
0.0951529
0.0940836
0.0928758
0.0916945
0.0907469
0.0902723
0.0903202
0.0907594
0.0912748
0.0912856
0.0903564
0.088213
0.0847942
0.0804653
0.0757502
0.0712646
0.0673801
0.0643421
0.062049
0.0601869
0.0584347
0.0565189
0.054252
0.0516647
0.0488275
0.0458483
0.0429215
0.0401602
0.0376611
0.0354644
0.0335338
0.0317376
0.0298861
0.0278011
0.0253179
0.0224737
0.0193892
0.0161734
0.0132251
0.0107537
0.00896002
0.00776952
0.00698948
0.00622437
0.00512371
0.00346202
0.0011467
-0.00165364
-0.00460738
-0.00737075
-0.00965114
-0.0113393
-0.0124649
-0.0131437
-0.0135732
-0.0138981
-0.0142219
-0.0145335
-0.0147573
-0.0147895
-0.0144869
-0.0137953
-0.0127425
-0.0113043
-0.00967407
-0.00805998
-0.00680028
-0.00619088
-0.00641317
-0.00745364
-0.00905297
-0.0108572
-0.0124494
-0.0136306
-0.0143312
-0.0146707
-0.0147216
-0.0142909
-0.0129846
-0.0101621
-0.00521524
0.00209438
0.0115051
0.0221573
0.0328084
0.0422741
0.0497588
0.0551331
0.0589384
0.0620874
0.0654227
0.0694217
0.073908
0.0782942
0.081752
0.0835461
0.083286
0.0809544
0.0769176
0.0718242
0.0663881
0.0614265
0.0575165
0.0549885
0.0539076
0.0541236
0.0553971
0.057657
0.0609778
0.065369
0.0705594
0.0756836
0.0793206
0.0799049
0.0761287
0.0673973
0.0541939
0.0378978
0.020334
0.00336394
-0.0116293
-0.0237623
-0.0327372
-0.0387202
-0.0421695
-0.0437063
-0.0440166
-0.0438272
-0.0436422
-0.0437252
-0.044105
-0.0446695
-0.0451521
-0.0453666
-0.0452215
-0.0447217
-0.0438952
-0.0428991
-0.0419469
-0.0413512
-0.0417038
-0.0439311
-0.0493118
-0.0596009
-0.0763736
-0.100699
-0.132121
-0.168315
-0.204708
-0.234822
-0.251205
-0.246617
-0.214914
-0.151111
-0.0513515
0.086633
0.262011
0.468355
0.690851
0.905065
1.07902
1.17955
1.18141
1.07653
0.878787
0.621999
0.351221
0.110319
-0.0697757
-0.177449
-0.220035
-0.217434
-0.193161
-0.166243
-0.147269
-0.138636
-0.13765
-0.140154
-0.142984
-0.144809
-0.145798
-0.146612
-0.147575
-0.148576
-0.149166
-0.149006
-0.147989
-0.146377
-0.144454
-0.142578
-0.140898
-0.139433
-0.138022
-0.136523
-0.134888
-0.133218
-0.131705
-0.130518
-0.129736
-0.129272
-0.128908
-0.128343
-0.127345
-0.125781
-0.123618
-0.121013
-0.11812
-0.115126
-0.112258
-0.109693
-0.107679
-0.106338
-0.105784
-0.105789
-0.106177
-0.106549
-0.106679
-0.106478
-0.106092
-0.105784
-0.105811
-0.106247
-0.107018
-0.107895
-0.108502
-0.108592
-0.108088
-0.106996
-0.105463
-0.103666
-0.101772
-0.0998166
-0.0977797
-0.0956103
-0.0932125
-0.090651
-0.0880064
-0.0855697
-0.0836498
-0.082646
-0.0827678
-0.0842208
-0.086921
-0.0906365
-0.0950341
-0.0997091
-0.104286
-0.108478
-0.11204
-0.114789
-0.116596
-0.117419
-0.117012
-0.115166
-0.111505
-0.105598
-0.0971856
-0.0862984
-0.0734576
-0.0596799
-0.046273
-0.0343717
-0.0247805
-0.0176
-0.0123248
-0.00810741
-0.00404778
0.000582459
0.00609015
0.0123947
0.0192862
0.0264092
0.0334619
0.040233
0.0465867
0.0524093
0.057646
0.0623714
0.0665985
0.0704508
0.0739572
0.0771334
0.0799642
0.082382
0.0843495
0.0858818
0.0870019
0.0877355
0.0880967
0.0881491
0.0879869
0.0877855
0.0876899
0.0877896
0.0880667
0.0884265
0.0885689
0.0882561
0.0873304
0.0857296
0.0834783
0.0807712
0.0777661
0.0746675
0.0716552
0.0687404
0.0659324
0.0631179
0.0602406
0.0572782
0.0543259
0.0515401
0.0490764
0.0470294
0.0454715
0.0443967
0.0438194
0.0436674
0.0437857
0.0438905
0.0435115
0.0420867
0.0391752
0.034694
0.0288746
0.0223446
0.0159323
0.0104157
0.00626367
0.00350394
0.00180563
0.000571112
-0.000862975
-0.00295498
-0.00588108
-0.00939988
-0.0130949
-0.0163483
-0.0186848
-0.0198108
-0.0197539
-0.018851
-0.0176381
-0.0166218
-0.0161642
-0.0163188
-0.0168672
-0.0174218
-0.0175629
-0.0171762
-0.0162965
-0.0152626
-0.0145386
-0.0146072
-0.0156397
-0.0175509
-0.0200446
-0.0226505
-0.0248727
-0.026418
-0.027183
-0.0272567
-0.0268954
-0.0263597
-0.0258587
-0.0254925
-0.0253019
-0.0251577
-0.0249962
-0.0246887
-0.0241046
-0.0232022
-0.0218938
-0.0201183
-0.0178273
-0.0148011
-0.0108615
-0.00584443
0.000306601
0.00741071
0.0150889
0.0229412
0.0305087
0.0375064
0.0438915
0.0497843
0.0554268
0.0609083
0.0662643
0.0711804
0.0752288
0.0779939
0.0792236
0.0788221
0.0770401
0.0741682
0.0706484
0.0667938
0.0627787
0.0588806
0.055517
0.0533395
0.0531174
0.0555041
0.0605441
0.0675794
0.0749997
0.0805527
0.0820162
0.0778295
0.0675005
0.0519244
0.0329172
0.0128218
-0.00624537
-0.0227787
-0.0359977
-0.0458495
-0.0526347
-0.0569082
-0.0592539
-0.0602157
-0.0604639
-0.0605
-0.0605695
-0.0608403
-0.0610869
-0.0609829
-0.0602061
-0.05858
-0.0561728
-0.0534609
-0.0509744
-0.049305
-0.0488821
-0.0499767
-0.0526862
-0.0571951
-0.0639984
-0.0740317
-0.0885305
-0.10866
-0.134942
-0.16627
-0.199478
-0.229154
-0.248285
-0.249624
-0.226996
-0.176227
-0.0952148
0.0167619
0.159082
0.329288
0.521288
0.72281
0.913886
1.06778
1.15571
1.15471
1.05596
0.86987
0.625244
0.362444
0.122522
-0.0635311
-0.181787
-0.23611
-0.243155
-0.224585
-0.199243
-0.178782
-0.167221
-0.163307
-0.163756
-0.165596
-0.167313
-0.168574
-0.169469
-0.170062
-0.169991
-0.168821
-0.166421
-0.163007
-0.159069
-0.155268
-0.152103
-0.149931
-0.148831
-0.148739
-0.149409
-0.150711
-0.152455
-0.154467
-0.15654
-0.158249
-0.159157
-0.158869
-0.157199
-0.154292
-0.150573
-0.146665
-0.1431
-0.140248
-0.138111
-0.13645
-0.134923
-0.133267
-0.131462
-0.129657
-0.128277
-0.127569
-0.127701
-0.128436
-0.129308
-0.129797
-0.129485
-0.12819
-0.126086
-0.123473
-0.120746
-0.118315
-0.116379
-0.115095
-0.114644
-0.115082
-0.116418
-0.118579
-0.121187
-0.123722
-0.125691
-0.126629
-0.12631
-0.124845
-0.122597
-0.120257
-0.118522
-0.118028
-0.119232
-0.122306
-0.126968
-0.132551
-0.138193
-0.142881
-0.145782
-0.146492
-0.145038
-0.141719
-0.137125
-0.131614
-0.125248
-0.117883
-0.109193
-0.0989972
-0.0875001
-0.0753257
-0.0633135
-0.0522673
-0.0427569
-0.0349631
-0.0287105
-0.0235397
-0.019024
-0.0147626
-0.0104812
-0.00586947
-0.000840496
0.00473164
0.0107915
0.0171404
0.0235224
0.029687
0.0355871
0.0413744
0.0473167
0.0535256
0.0599064
0.0660723
0.0713369
0.0751121
0.0769819
0.0770693
0.0758205
0.0739482
0.072053
0.0705336
0.0693944
0.0682929
0.0669426
0.0650576
0.0627901
0.06043
0.0585091
0.0572844
0.0567853
0.0566741
0.0563949
0.0554869
0.0537367
0.0512383
0.0483578
0.045582
0.0432864
0.041568
0.0402262
0.0388633
0.0371541
0.0347964
0.0318298
0.0285528
0.025464
0.0230287
0.0215678
0.0211094
0.0213232
0.0217021
0.0217219
0.0209589
0.0191197
0.0161662
0.01225
0.00755578
0.00236794
-0.00308448
-0.00858434
-0.014026
-0.0193816
-0.0246695
-0.0299822
-0.0353252
-0.0403443
-0.0444424
-0.0468533
-0.0467565
-0.0437873
-0.0381256
-0.0306084
-0.0225078
-0.0152608
-0.00996885
-0.00723297
-0.00702591
-0.00888599
-0.0119593
-0.0152986
-0.0180004
-0.019474
-0.0195644
-0.0185213
-0.0170199
-0.0158844
-0.0158469
-0.0172528
-0.0200764
-0.0238315
-0.0278327
-0.0314459
-0.0342043
-0.0359472
-0.0368107
-0.0370128
-0.0367056
-0.0358808
-0.0341686
-0.0309356
-0.0256341
-0.0180512
-0.00854688
0.00186019
0.0117837
0.0199834
0.0257289
0.0292539
0.0315869
0.0340722
0.0379164
0.0436295
0.0508476
0.0584861
0.0652488
0.0700027
0.07225
0.0721388
0.0701962
0.0671625
0.0635766
0.0597728
0.0558602
0.0521932
0.0491991
0.0474807
0.0474979
0.0492394
0.0519824
0.0544836
0.055227
0.0529925
0.047307
0.0384503
0.0274535
0.0155319
0.00368248
-0.00752156
-0.017956
-0.0276166
-0.0363257
-0.0436068
-0.0489119
-0.0518332
-0.052355
-0.0512021
-0.0495034
-0.0484868
-0.0490947
-0.0516596
-0.0557094
-0.0603469
-0.0644284
-0.0669969
-0.0675815
-0.0662572
-0.0635026
-0.0599709
-0.0563079
-0.0530444
-0.0505089
-0.0490539
-0.0492616
-0.0522924
-0.0597485
-0.0734628
-0.0948947
-0.124238
-0.159348
-0.195202
-0.223856
-0.235026
-0.217209
-0.159566
-0.054356
0.0998923
0.295592
0.514341
0.727361
0.899733
0.998097
0.999789
0.90035
0.716481
0.482465
0.240936
0.0312131
-0.120605
-0.206492
-0.234944
-0.224718
-0.196708
-0.167505
-0.146237
-0.135168
-0.1324
-0.13468
-0.139154
-0.144165
-0.14899
-0.153188
-0.156264
-0.15775
-0.1574
-0.155338
-0.151998
-0.147937
-0.143638
-0.139395
-0.135277
-0.131324
-0.127553
-0.124094
-0.121194
-0.119114
-0.118076
-0.118079
-0.119019
-0.120434
-0.12189
-0.122957
-0.12324
-0.122532
-0.120871
-0.118387
-0.115446
-0.112709
-0.11084
-0.110403
-0.111726
-0.114532
-0.117993
-0.1209
-0.122065
-0.120648
-0.116647
-0.110863
-0.104604
-0.0993687
-0.0961663
-0.0953714
-0.0964964
-0.0984675
-0.0999651
-0.100124
-0.098529
-0.0955317
-0.0919391
-0.0887071
-0.086429
-0.0853251
-0.0851629
-0.0853365
-0.0854309
-0.0853154
-0.0851231
-0.0852204
-0.0858165
-0.0868919
-0.0881621
-0.0891666
-0.0895126
-0.0891384
-0.0884544
-0.0881033
-0.0889349
-0.0915129
-0.0960006
-0.102005
-0.108661
-0.114799
-0.119391
-0.121512
-0.120709
-0.116869
-0.110232
-0.101288
-0.0906781
-0.0794031
-0.0686603
-0.0597268
-0.0536618
-0.0508528
-0.0509251
-0.0525579
-0.0539883
-0.0535076
-0.0499563
-0.0430412
-0.0332834
-0.021782
-0.00979851
0.00167164
0.0120843
0.0213994
0.029922
0.0381529
0.0466267
0.0555656
0.0648255
0.0741403
0.0830455
0.0912237
0.0984764
0.104779
0.11007
0.114169
0.116743
0.117618
0.116755
0.11436
0.110974
0.10728
0.103856
0.101039
0.0989486
0.0974753
0.0964053
0.0954483
0.0943329
0.0927597
0.0905597
0.0876848
0.0842986
0.080739
0.0775143
0.0750104
0.0735245
0.0731034
0.0736553
0.0748713
0.0764082
0.0779804
0.0793981
0.0803025
0.0804829
0.0796462
0.0776302
0.074308
0.069822
0.0644876
0.0587796
0.0531492
0.0480108
0.0436689
0.0402165
0.0375469
0.0354708
0.0337023
0.0320056
0.030176
0.0281189
0.0258253
0.0234644
0.0212221
0.0193148
0.0180533
0.0175754
0.017831
0.0186062
0.0195783
0.0202962
0.0205583
0.0202917
0.0197158
0.0191284
0.0188012
0.0187201
0.0187386
0.0185617
0.0178851
0.0165818
0.0148378
0.0129528
0.0112969
0.0101154
0.00944909
0.00916418
0.00903503
0.00878695
0.00835111
0.00780876
0.00717159
0.00663611
0.0063282
0.00620296
0.00618946
0.00617712
0.00588202
0.00518218
0.00408079
0.00289317
0.00226193
0.00308071
0.00611061
0.0117126
0.0197221
0.0293189
0.0392848
0.0484779
0.0561102
0.0619793
0.0664149
0.0700826
0.073555
0.0771584
0.0807667
0.0839783
0.0863333
0.0875829
0.0876961
0.0870318
0.0859166
0.0846356
0.0833003
0.0819256
0.0808087
0.0805182
0.0817623
0.0849922
0.0899458
0.0954085
0.0993273
0.0995302
0.0944047
0.0835312
0.0677965
0.0490738
0.0296475
0.0114072
-0.00443651
-0.0174243
-0.0275734
-0.0351114
-0.0401667
-0.0429825
-0.0437855
-0.0429526
-0.0410489
-0.0387227
-0.0365035
-0.0348449
-0.0339272
-0.0338548
-0.0344996
-0.0357167
-0.0372708
-0.0388687
-0.040257
-0.0412158
-0.0419949
-0.0436327
-0.0478263
-0.0567958
-0.0725843
-0.0963631
-0.127348
-0.161915
-0.19331
-0.212231
-0.207935
-0.169778
-0.0888616
0.0397641
0.215251
0.428776
0.66239
0.889352
1.07675
1.19166
1.20894
1.11924
0.933596
0.682476
0.408771
0.156468
-0.0405404
-0.165926
-0.222402
-0.227013
-0.203194
-0.172228
-0.147933
-0.135568
-0.133942
-0.1388
-0.145872
-0.152255
-0.156822
-0.159517
-0.16069
-0.16061
-0.159606
-0.158096
-0.156554
-0.155539
-0.155361
-0.156045
-0.157147
-0.158052
-0.15806
-0.156794
-0.154172
-0.150522
-0.146412
-0.142395
-0.138806
-0.135657
-0.132792
-0.129948
-0.12715
-0.124565
-0.122587
-0.121583
-0.121801
-0.123038
-0.124939
-0.126871
-0.128317
-0.128837
-0.128389
-0.127115
-0.125332
-0.123374
-0.121553
-0.120068
-0.119055
-0.118454
-0.118142
-0.117926
-0.11745
-0.116416
-0.114517
-0.111711
-0.108152
-0.104273
-0.100484
-0.0972861
-0.0950049
-0.093759
-0.0935235
-0.0943242
-0.0960348
-0.0987161
-0.102191
-0.10644
-0.111103
-0.115855
-0.120325
-0.124151
-0.127338
-0.129978
-0.132264
-0.134464
-0.136724
-0.139052
-0.141362
-0.143435
-0.144997
-0.145642
-0.144731
-0.141536
-0.13524
-0.12525
-0.111234
-0.0935091
-0.0729634
-0.0509574
-0.0291429
-0.00904799
0.0080306
0.0215341
0.0314561
0.0384841
0.0436105
0.0478423
0.052063
0.0566931
0.0618486
0.067368
0.0730143
0.0786698
0.0842324
0.08964
0.0947312
0.0993734
0.103286
0.106388
0.1087
0.110469
0.112061
0.113752
0.115684
0.117687
0.119432
0.120479
0.120588
0.119589
0.117584
0.114822
0.111686
0.108492
0.105503
0.102899
0.100605
0.0985517
0.0965702
0.0944273
0.0919964
0.0891844
0.0860499
0.0825767
0.0789597
0.0753301
0.0719699
0.0692004
0.0672229
0.0662035
0.0660003
0.0662944
0.0666932
0.0667901
0.0662214
0.0648276
0.0626139
0.0597172
0.0562123
0.052319
0.0481531
0.0438567
0.0395687
0.035375
0.0314125
0.027866
0.0248406
0.0224905
0.0208194
0.0197688
0.0191672
0.0187897
0.0182793
0.0174499
0.0162261
0.0147252
0.0132053
0.012093
0.01155
0.0116751
0.0122676
0.0130297
0.0135446
0.0135975
0.0132297
0.012637
0.012033
0.0115066
0.0109967
0.0101997
0.0087626
0.00638831
0.00311186
-0.000841097
-0.00497266
-0.00863881
-0.0113922
-0.0129524
-0.0133231
-0.0128916
-0.0120752
-0.0112844
-0.0107087
-0.0102078
-0.00924714
-0.0071919
-0.00346437
0.00224889
0.00971698
0.0182216
0.0267838
0.0343061
0.0401158
0.0440611
0.0465448
0.0484588
0.0507672
0.0542455
0.059073
0.0648308
0.0705305
0.0749849
0.0772339
0.0767924
0.073815
0.0691473
0.0639556
0.059441
0.056621
0.0561189
0.0581738
0.0625496
0.0685233
0.0747476
0.0794802
0.0808981
0.0775573
0.0689796
0.0557914
0.0396692
0.0228238
0.00729773
-0.00553983
-0.0154058
-0.0228119
-0.0287182
-0.0339039
-0.0387487
-0.0431456
-0.0467572
-0.0493019
-0.0507052
-0.0513227
-0.051661
-0.0521827
-0.0532251
-0.0547111
-0.0563316
-0.0577261
-0.0586272
-0.0588134
-0.0583098
-0.0572554
-0.0558792
-0.0544411
-0.0533249
-0.0532612
-0.0554914
-0.0616871
-0.0737859
-0.0933756
-0.12087
-0.154593
-0.189796
-0.218636
-0.230658
-0.213833
-0.156352
-0.0489768
0.111671
0.319974
0.559027
0.800139
1.00633
1.13962
1.17091
1.0892
0.906751
0.657133
0.386535
0.140883
-0.0463692
-0.161469
-0.210321
-0.212511
-0.191828
-0.168161
-0.152801
-0.148317
-0.151769
-0.158323
-0.164064
-0.167013
-0.167053
-0.165006
-0.161901
-0.158499
-0.15528
-0.152538
-0.150445
-0.149059
-0.148291
-0.147932
-0.147772
-0.147551
-0.147118
-0.146355
-0.145294
-0.144136
-0.14315
-0.142512
-0.1423
-0.14242
-0.142523
-0.142338
-0.141531
-0.140008
-0.137814
-0.135096
-0.132045
-0.128893
-0.125666
-0.122382
-0.119105
-0.115945
-0.113121
-0.110869
-0.109481
-0.109047
-0.109514
-0.110721
-0.112246
-0.113775
-0.115044
-0.11584
-0.11617
-0.116187
-0.11612
-0.116219
-0.116623
-0.117245
-0.117882
-0.118183
-0.117792
-0.116604
-0.114681
-0.112137
-0.109306
-0.106438
-0.103682
-0.101196
-0.0991362
-0.0978172
-0.0975866
-0.0987579
-0.101563
-0.105764
-0.110907
-0.116188
-0.120684
-0.123689
-0.124783
-0.12396
-0.121631
-0.11821
-0.114091
-0.109306
-0.103541
-0.0963242
-0.0870964
-0.075559
-0.0618287
-0.0465281
-0.0305801
-0.0149779
-0.000622387
0.0121205
0.023217
0.0329638
0.0419524
0.050421
0.0585993
0.066305
0.0732225
0.079142
0.0839248
0.0876409
0.0905383
0.0928701
0.0949222
0.0968197
0.0985408
0.0999015
0.100742
0.101033
0.100701
0.0999076
0.0988266
0.0976073
0.096396
0.0952617
0.0943274
0.0935045
0.092799
0.0921181
0.0913281
0.0904044
0.0892041
0.0878982
0.0866617
0.0856066
0.0847711
0.0840317
0.0831034
0.0817342
0.079881
0.0777779
0.0759339
0.0749664
0.0753953
0.0774461
0.0811116
0.0859875
0.0916055
0.0974665
0.103141
0.108263
0.112451
0.115423
0.116947
0.117149
0.116298
0.115004
0.114133
0.114272
0.115724
0.118229
0.120888
0.122465
0.121731
0.117847
0.110545
0.100147
0.0873731
0.0731245
0.0581604
0.0430434
0.0280852
0.0135901
-0.000170542
-0.0127947
-0.0239311
-0.0333177
-0.0408773
-0.0467084
-0.051077
-0.0544083
-0.0569945
-0.0591425
-0.0610468
-0.0627888
-0.0643187
-0.0655652
-0.0664079
-0.0666688
-0.0662311
-0.0650399
-0.0632324
-0.0612177
-0.0595763
-0.0589748
-0.0598253
-0.0620997
-0.0652659
-0.0684553
-0.07074
-0.0717884
-0.0722205
-0.073922
-0.0797145
-0.0927258
-0.115149
-0.14716
-0.185762
-0.224091
-0.251887
-0.256696
-0.225468
-0.146756
-0.0136237
0.173352
0.403266
0.653449
0.890588
1.0758
1.17328
1.16034
1.03537
0.820079
0.554737
0.287247
0.0599771
-0.100765
-0.189146
-0.217013
-0.206281
-0.179732
-0.154346
-0.138324
-0.132543
-0.133822
-0.138216
-0.142645
-0.145605
-0.146837
-0.146549
-0.145115
-0.142911
-0.140423
-0.138173
-0.13655
-0.135834
-0.135996
-0.136846
-0.138047
-0.13928
-0.140196
-0.140551
-0.140177
-0.139052
-0.137285
-0.135051
-0.132612
-0.130178
-0.127899
-0.125758
-0.123741
-0.121669
-0.119415
-0.11684
-0.113876
-0.110559
-0.107038
-0.103568
-0.100402
-0.0977348
-0.0956849
-0.0942374
-0.0933299
-0.0929086
-0.0929046
-0.0933401
-0.0941939
-0.0954416
-0.0969545
-0.0984439
-0.0996455
-0.100272
-0.100189
-0.0994036
-0.0980658
-0.0964917
-0.0948621
-0.0933941
-0.0921259
-0.0909757
-0.0899027
-0.088893
-0.0880135
-0.0873023
-0.0868647
-0.0866726
-0.0866102
-0.0865969
-0.0866065
-0.0867794
-0.0875248
-0.089308
-0.0926526
-0.0977958
-0.104565
-0.112409
-0.120336
-0.12731
-0.132289
-0.134592
-0.133857
-0.129985
-0.123078
-0.113264
-0.10075
-0.0859319
-0.0693732
-0.0518608
-0.034321
-0.0176126
-0.00220255
0.0118208
0.0247891
0.0371827
0.0493354
0.0612139
0.0724115
0.0822837
0.090139
0.0955984
0.0985425
0.0992673
0.0982503
0.0959421
0.0927041
0.0888862
0.0846741
0.0803904
0.0763579
0.0728244
0.0700276
0.0680336
0.0667679
0.0660846
0.0658696
0.0660168
0.0665415
0.0674355
0.0686047
0.0698252
0.0706914
0.0708296
0.0699402
0.0679185
0.0648612
0.0609915
0.056689
0.0522637
0.0479412
0.0439042
0.0401941
0.0367021
0.0333176
0.029932
0.0264614
0.0229585
0.0195162
0.0163266
0.0135572
0.0113002
0.00958064
0.00837289
0.00766997
0.00755174
0.00795753
0.00874845
0.0096307
0.0101016
0.00972129
0.00821421
0.00569283
0.00272369
0.000123176
-0.00133403
-0.00125602
0.000240048
0.00245851
0.00450648
0.00557506
0.00527591
0.00376062
0.00161971
-0.000332627
-0.00146914
-0.00146364
-0.000378792
0.00134484
0.00327799
0.00495357
0.00609326
0.00677779
0.00710157
0.00725565
0.00730357
0.00712002
0.00644538
0.00516644
0.00316756
0.000564323
-0.00232549
-0.00509539
-0.00738948
-0.00895435
-0.00979872
-0.00997009
-0.00970623
-0.00922075
-0.00863929
-0.00813928
-0.00781169
-0.00780403
-0.00818918
-0.00905012
-0.0104036
-0.0121332
-0.0140544
-0.0159633
-0.0176968
-0.0191449
-0.0203584
-0.0213147
-0.0219834
-0.0223969
-0.022419
-0.0219308
-0.0207379
-0.0186623
-0.0156517
-0.0118761
-0.00763688
-0.00348159
1.28894e-6
0.00228902
0.00307083
0.00236939
0.000411012
-0.00230741
-0.00525939
-0.00791249
-0.00991335
-0.0110081
-0.0111511
-0.0105546
-0.00946384
-0.00835616
-0.00753548
-0.00733373
-0.00784177
-0.00890273
-0.0101227
-0.0109496
-0.0108997
-0.0096739
-0.00733586
-0.00426038
-0.0010251
0.00186563
0.00422954
0.00631211
0.00868239
0.0119465
0.0165079
0.0223545
0.028963
0.0355325
0.0413886
0.0461588
0.0499639
0.0533262
0.056873
0.0610077
0.0655887
0.0700673
0.073606
0.0755331
0.0755572
0.0739037
0.071134
0.0677945
0.0642429
0.0605386
0.056693
0.0529302
0.0498723
0.0483893
0.0491595
0.0522542
0.0567917
0.0608908
0.0624087
0.0595174
0.0513012
0.0381053
0.0213701
0.00318351
-0.014363
-0.0295492
-0.0412979
-0.0491559
-0.0532336
-0.0541814
-0.0530055
-0.0509946
-0.0494027
-0.0491672
-0.0506297
-0.0534441
-0.0567384
-0.0595046
-0.0609489
-0.0607654
-0.0592047
-0.0569596
-0.0547498
-0.0531274
-0.0525249
-0.0533531
-0.0563915
-0.0628898
-0.0744393
-0.0925018
-0.117572
-0.148197
-0.18052
-0.208541
-0.225161
-0.223769
-0.199724
-0.151225
-0.0792824
0.0133483
0.123571
0.249316
0.389514
0.543135
0.706738
0.871683
1.02239
1.1371
1.19185
1.16725
1.0555
0.865191
0.621492
0.360532
0.120239
-0.069546
-0.193901
-0.254566
-0.266099
-0.248891
-0.22194
-0.198137
-0.183141
-0.17708
-0.177198
-0.180334
-0.184069
-0.18706
-0.188641
-0.188549
-0.186979
-0.184528
-0.182147
-0.180726
-0.180777
-0.182161
-0.184058
-0.185462
-0.185535
-0.184008
-0.181237
-0.178057
-0.175423
-0.174139
-0.17445
-0.176048
-0.178112
-0.179543
-0.179381
-0.177015
-0.172377
-0.166034
-0.158983
-0.152425
-0.147458
-0.14483
-0.144674
-0.146637
-0.14997
-0.153754
-0.157143
-0.159386
-0.160148
-0.159365
-0.157396
-0.154802
-0.152307
-0.150611
-0.150189
-0.150964
-0.152437
-0.153857
-0.154475
-0.15392
-0.152248
-0.14989
-0.14743
-0.145174
-0.143057
-0.140817
-0.138072
-0.134763
-0.131167
-0.127981
-0.125987
-0.125896
-0.128042
-0.132446
-0.138792
-0.146596
-0.155293
-0.16436
-0.173328
-0.181671
-0.188853
-0.194504
-0.198315
-0.200052
-0.199614
-0.196812
-0.191456
-0.183288
-0.172027
-0.15764
-0.140464
-0.12119
-0.100806
-0.0803164
-0.0605188
-0.0417493
-0.0239851
-0.0069284
0.00974139
0.0259715
0.0412844
0.0549179
0.066103
0.0744663
0.0801759
0.083919
0.0866767
0.0894732
0.092802
0.0967803
0.100996
0.104851
0.107839
0.109811
0.110931
0.111724
0.112649
0.11401
0.115642
0.117032
0.117375
0.11602
0.112703
0.107677
0.101651
0.0956274
0.0905752
0.087134
0.0855262
0.0854878
0.0865925
0.088224
0.0898198
0.0909247
0.0913381
0.0907695
0.0891939
0.0865269
0.0829434
0.0787327
0.0743679
0.0704908
0.0676792
0.0662127
0.0659852
0.0663909
0.0665025
0.0653048
0.0621745
0.0570268
0.0503496
0.0429987
0.035866
0.0295487
0.0241935
0.0195871
0.0153005
0.0111633
0.00735462
0.00438974
0.00286966
0.00321136
0.00526101
0.00843976
0.0117797
0.0143323
0.0155352
0.0152165
0.0138079
0.0120025
0.010439
0.00941302
0.00882739
0.00819124
0.00691775
0.00458914
0.00117388
-0.0029393
-0.00709873
-0.0106248
-0.0130256
-0.0141522
-0.0142507
-0.0137915
-0.013197
-0.0127928
-0.0126468
-0.012603
-0.0124309
-0.0118781
-0.0107402
-0.00886963
-0.00619425
-0.00264254
0.00183934
0.00725433
0.0135255
0.0203955
0.0275397
0.0346316
0.0414159
0.0477823
0.0537621
0.0593922
0.0647897
0.0700302
0.0750224
0.0795288
0.0832942
0.0861011
0.0878237
0.0886057
0.0886817
0.0882615
0.0874396
0.0860948
0.0839707
0.0809576
0.0772535
0.0737156
0.0713688
0.0710198
0.0726768
0.0753779
0.0772392
0.0761336
0.0704174
0.0595987
0.0445469
0.0272954
0.0102235
-0.00468072
-0.0162103
-0.0241393
-0.0289859
-0.0316528
-0.0330183
-0.0338276
-0.0345354
-0.0353126
-0.0361785
-0.037027
-0.0378253
-0.0385819
-0.0393029
-0.0402244
-0.0414288
-0.0427269
-0.0437003
-0.0438245
-0.0426072
-0.0400532
-0.0368469
-0.034239
-0.0339004
-0.0375365
-0.0463222
-0.0608523
-0.0811136
-0.106481
-0.13578
-0.167059
-0.197421
-0.222902
-0.238423
-0.238375
-0.216982
-0.168815
-0.0888803
0.0266737
0.179136
0.365091
0.573795
0.785396
0.971723
1.10082
1.14473
1.08832
0.935762
0.711239
0.453562
0.205909
0.00412009
-0.131688
-0.199852
-0.213834
-0.194895
-0.163957
-0.13596
-0.117764
-0.109786
-0.108891
-0.111317
-0.114375
-0.116912
-0.118861
-0.120521
-0.121996
-0.123101
-0.123641
-0.123438
-0.122455
-0.12083
-0.118795
-0.116666
-0.114708
-0.113094
-0.111888
-0.110992
-0.110101
-0.108909
-0.107122
-0.104523
-0.101153
-0.0972395
-0.0931256
-0.0891791
-0.0856954
-0.0828401
-0.0805741
-0.0787662
-0.0773631
-0.0762671
-0.0754405
-0.0749216
-0.07466
-0.0746231
-0.0747287
-0.074953
-0.0753098
-0.075812
-0.0765203
-0.077428
-0.078445
-0.0794382
-0.080227
-0.0805517
-0.0802251
-0.0790647
-0.0771012
-0.0744262
-0.0713768
-0.0684188
-0.0660229
-0.064521
-0.0641017
-0.0646991
-0.066094
-0.0680168
-0.070309
-0.0728374
-0.0755126
-0.0782443
-0.0808344
-0.0831083
-0.0848426
-0.0861695
-0.0874066
-0.0890674
-0.0916535
-0.0953875
-0.100087
-0.105154
-0.109701
-0.112984
-0.114456
-0.113952
-0.111546
-0.107393
-0.101628
-0.0943823
-0.0857663
-0.0760717
-0.0657507
-0.0554026
-0.0455404
-0.0365011
-0.028311
-0.0206377
-0.0129766
-0.00482774
0.00404437
0.0136821
0.0238889
0.0342932
0.0446385
0.0547177
0.0644871
0.073907
0.0827889
0.090743
0.0974068
0.102451
0.105838
0.107936
0.109333
0.110674
0.112424
0.114685
0.117208
0.119593
0.121386
0.122302
0.122262
0.121377
0.11973
0.117399
0.114416
0.110868
0.10692
0.102929
0.0992151
0.0960366
0.0934465
0.0913862
0.0896613
0.0881355
0.0867204
0.0854923
0.0844827
0.0836805
0.0830135
0.0823126
0.0814842
0.0805065
0.0794956
0.0785447
0.0776817
0.0768565
0.075891
0.0745593
0.0726313
0.0700886
0.0669736
0.063447
0.0597119
0.0559504
0.0522125
0.048484
0.0447673
0.0411064
0.0376511
0.0346542
0.0323886
0.031048
0.0306733
0.0310668
0.0318156
0.0324173
0.0323125
0.0311822
0.0290483
0.026243
0.0233086
0.020813
0.0191655
0.018367
0.018209
0.0181254
0.0176206
0.016374
0.0144195
0.0121346
0.0100565
0.00875065
0.00854677
0.00940296
0.010895
0.0123795
0.0132613
0.0131209
0.0119503
0.0101344
0.00827514
0.00692616
0.00641102
0.00670083
0.00739313
0.00789186
0.007726
0.00650273
0.00417587
0.000983478
-0.00277317
-0.00662731
-0.0102075
-0.0132119
-0.0153622
-0.0165628
-0.0167851
-0.0160813
-0.0147381
-0.0130353
-0.0111485
-0.00906976
-0.00658097
-0.00321829
0.001581
0.00815614
0.0165937
0.0265675
0.0373697
0.0481052
0.0578937
0.0661324
0.072593
0.0774644
0.0812131
0.084438
0.0876728
0.091143
0.0946147
0.0975924
0.0992804
0.0990479
0.0965857
0.0919969
0.0860013
0.0795189
0.0733544
0.0681627
0.0643764
0.0622466
0.0621374
0.064405
0.0690899
0.0756132
0.0826474
0.0882224
0.0903923
0.0878403
0.0803005
0.06873
0.0548123
0.0403159
0.0266048
0.0142586
0.00331729
-0.00642093
-0.0150732
-0.0225423
-0.0285582
-0.0328762
-0.0355794
-0.037027
-0.0377953
-0.038532
-0.0397471
-0.0416037
-0.0441061
-0.0469352
-0.0497977
-0.0523643
-0.0544323
-0.0558295
-0.0565671
-0.0566698
-0.0561525
-0.0549642
-0.0531051
-0.0506679
-0.0479395
-0.0455991
-0.0447708
-0.047034
-0.0541525
-0.0677228
-0.0885691
-0.116248
-0.148535
-0.18129
-0.208308
-0.221981
-0.214273
-0.177587
-0.105541
0.0061406
0.158763
0.348926
0.566872
0.79485
1.00718
1.17281
1.26114
1.25017
1.13403
0.927296
0.662899
0.384304
0.134233
-0.0563299
-0.17454
-0.22591
-0.228965
-0.206897
-0.179588
-0.159141
-0.14934
-0.148275
-0.151633
-0.155513
-0.157732
-0.15789
-0.156753
-0.155341
-0.154548
-0.154863
-0.156276
-0.158436
-0.160674
-0.162356
-0.163011
-0.162608
-0.161408
-0.159966
-0.15883
-0.158253
-0.158181
-0.158256
-0.157987
-0.156847
-0.15467
-0.15145
-0.147577
-0.143636
-0.140141
-0.137438
-0.135651
-0.134636
-0.134093
-0.133745
-0.133346
-0.132779
-0.131989
-0.130882
-0.129466
-0.127766
-0.125843
-0.123884
-0.12232
-0.121497
-0.121604
-0.12273
-0.124591
-0.126756
-0.128659
-0.129903
-0.130075
-0.129073
-0.12697
-0.123917
-0.12021
-0.116185
-0.112253
-0.108839
-0.106331
-0.10503
-0.10504
-0.10621
-0.108284
-0.110893
-0.113649
-0.116235
-0.118469
-0.120328
-0.121895
-0.123261
-0.124581
-0.12576
-0.126716
-0.127124
-0.126699
-0.125016
-0.121805
-0.116811
-0.109995
-0.101341
-0.0909171
-0.0789545
-0.0658007
-0.0520196
-0.0385272
-0.0263584
-0.0165127
-0.00979131
-0.00638752
-0.00599539
-0.00779908
-0.0106832
-0.0135923
-0.0156645
-0.0163332
-0.015297
-0.012458
-0.00788076
-0.00168068
0.0058799
0.0145578
0.0239844
0.0337775
0.0436138
0.0532266
0.0624212
0.0710997
0.0791971
0.0866418
0.0932828
0.0988536
0.103175
0.106055
0.107519
0.10772
0.10701
0.105823
0.10442
0.103057
0.101803
0.10065
0.0994696
0.0981383
0.0965373
0.0945313
0.0921771
0.0895022
0.0867028
0.0840739
0.0817956
0.080054
0.078828
0.0779402
0.0772491
0.0765918
0.0758424
0.0751072
0.0744182
0.0737795
0.0731171
0.072235
0.070812
0.0685832
0.0654695
0.0614344
0.056591
0.0511952
0.0456758
0.0404658
0.0360134
0.0326342
0.0303586
0.0290207
0.0282295
0.0275195
0.026509
0.0250229
0.0230866
0.0209018
0.0186821
0.0166313
0.0149489
0.0138341
0.0134474
0.0138611
0.0149681
0.016429
0.0178224
0.0186125
0.018474
0.0173223
0.0153894
0.0131278
0.0108888
0.00888094
0.00699479
0.0049361
0.00236841
-0.00082614
-0.00455221
-0.00839931
-0.0118387
-0.0145299
-0.0162163
-0.0169458
-0.0169344
-0.0164486
-0.015704
-0.0148534
-0.0139959
-0.0131069
-0.0122672
-0.0114646
-0.0108294
-0.010401
-0.0103129
-0.0106591
-0.0114218
-0.0126146
-0.014086
-0.015605
-0.0168584
-0.0173212
-0.0164434
-0.0137061
-0.00868686
-0.00144754
0.00755984
0.0174903
0.0272906
0.036123
0.0435584
0.0497107
0.0551536
0.0605999
0.0666874
0.073653
0.0813243
0.0889967
0.0958163
0.100947
0.10383
0.104283
0.102413
0.0986512
0.0936097
0.0879553
0.0823271
0.0773804
0.0737983
0.0721181
0.0724383
0.0742427
0.0763045
0.0769923
0.0746549
0.0682448
0.0576267
0.043705
0.0280235
0.0123914
-0.00177648
-0.0137914
-0.0235723
-0.0313471
-0.037398
-0.0419008
-0.0448828
-0.0463891
-0.0465124
-0.0455686
-0.0440865
-0.0427034
-0.0419632
-0.0422171
-0.0435907
-0.0459555
-0.049035
-0.0524564
-0.0557618
-0.05855
-0.0603703
-0.060881
-0.0599621
-0.0578643
-0.0552832
-0.0536546
-0.054922
-0.0612908
-0.0747002
-0.0962305
-0.125537
-0.160338
-0.195934
-0.225328
-0.239845
-0.229859
-0.185707
-0.0989856
0.0352836
0.216061
0.433601
0.667484
0.887504
1.05791
1.1453
1.12819
1.00458
0.794495
0.535865
0.274379
0.0509567
-0.108399
-0.197151
-0.226063
-0.216138
-0.189894
-0.164472
-0.148401
-0.142847
-0.144601
-0.149365
-0.153835
-0.15652
-0.157364
-0.156863
-0.155526
-0.153705
-0.151502
-0.149094
-0.146527
-0.143855
-0.141166
-0.138533
-0.136001
-0.133683
-0.131703
-0.130065
-0.12866
-0.127388
-0.12611
-0.1248
-0.123628
-0.122773
-0.122509
-0.12294
-0.123912
-0.125076
-0.125927
-0.125966
-0.124881
-0.122666
-0.119661
-0.116331
-0.113253
-0.110776
-0.109041
-0.107967
-0.107226
-0.106442
-0.105283
-0.103513
-0.101118
-0.0982702
-0.0952696
-0.0925242
-0.0903514
-0.0889721
-0.088426
-0.0885879
-0.0892472
-0.0901564
-0.091136
-0.0920508
-0.092855
-0.093482
-0.093858
-0.0940051
-0.0939431
-0.0938772
-0.0939952
-0.094434
-0.0952363
-0.0962366
-0.0971012
-0.0974903
-0.0972214
-0.0963484
-0.0951076
-0.0939345
-0.0932642
-0.0932841
-0.0941989
-0.0959294
-0.0982871
-0.100921
-0.103258
-0.104542
-0.103998
-0.100907
-0.0949221
-0.08612
-0.0750333
-0.0625503
-0.0496729
-0.0373253
-0.0261913
-0.0166634
-0.00877812
-0.00229655
0.00318731
0.00809127
0.0128073
0.017585
0.0224365
0.0273454
0.0321923
0.0369089
0.0416115
0.0464226
0.0515791
0.0572096
0.0632388
0.0693277
0.0750055
0.0796
0.0826374
0.0838704
0.0833559
0.0816406
0.079403
0.077411
0.0762852
0.0762759
0.0772438
0.0787165
0.0799705
0.0805027
0.0800668
0.0787589
0.0769957
0.0752735
0.0739791
0.0732792
0.0731452
0.0734136
0.0738986
0.0743072
0.0743437
0.0736797
0.0719967
0.0690888
0.0649312
0.05981
0.0541932
0.0486726
0.04373
0.0397361
0.0367469
0.0346715
0.0331658
0.0317199
0.0298551
0.0271311
0.0233443
0.0186351
0.0134489
0.00840032
0.00417161
0.0013157
0.000141795
0.000638651
0.00242356
0.00490876
0.00740034
0.00917794
0.00957374
0.00830574
0.00532657
0.0010285
-0.0037707
-0.00822215
-0.0114935
-0.0131699
-0.0132656
-0.0123493
-0.0112498
-0.0108135
-0.0115806
-0.0136247
-0.0164347
-0.0192578
-0.0213483
-0.0222963
-0.0221586
-0.0215501
-0.0212726
-0.02198
-0.0238827
-0.0265578
-0.0291543
-0.030735
-0.0305828
-0.0286846
-0.0255087
-0.0218602
-0.0185575
-0.0161345
-0.0147258
-0.014147
-0.0140993
-0.0143328
-0.0147248
-0.0150767
-0.0150333
-0.0139742
-0.0112415
-0.00639173
0.000492413
0.00867682
0.0168285
0.0237092
0.0285467
0.031416
0.033285
0.0356521
0.0398049
0.0464615
0.0553143
0.0651716
0.0744215
0.0815892
0.0856669
0.0863801
0.0841572
0.0798514
0.0744102
0.0686282
0.0631442
0.0584154
0.0548351
0.0526012
0.0515533
0.051041
0.0500005
0.0471632
0.0415064
0.0326458
0.0210548
0.0079269
-0.00517343
-0.0167986
-0.0259494
-0.0322768
-0.0358723
-0.0371281
-0.0365203
-0.0346891
-0.0322826
-0.0299943
-0.0283877
-0.027839
-0.0285749
-0.0306309
-0.0339308
-0.03834
-0.0436726
-0.0495728
-0.0555631
-0.0610072
-0.0653441
-0.0681355
-0.0691388
-0.0683895
-0.0661359
-0.0626432
-0.0586146
-0.0553003
-0.0545916
-0.0587819
-0.0701791
-0.0902727
-0.11874
-0.152658
-0.186151
-0.210409
-0.214231
-0.185207
-0.111938
0.0127981
0.188091
0.401631
0.628431
0.833417
0.978463
1.03231
0.980221
0.829444
0.608512
0.35953
0.126511
-0.0566933
-0.173555
-0.226088
-0.229852
-0.206144
-0.174309
-0.146884
-0.128876
-0.119724
-0.116367
-0.115547
-0.115362
-0.115276
-0.115609
-0.116675
-0.118505
-0.12074
-0.122799
-0.124125
-0.1244
-0.123777
-0.122755
-0.121954
-0.121861
-0.122593
-0.123924
-0.125389
-0.126467
-0.126776
-0.126193
-0.124812
-0.122764
-0.120194
-0.117217
-0.113945
-0.110452
-0.106964
-0.103678
-0.100839
-0.0985186
-0.0967975
-0.0956223
-0.0949536
-0.0948424
-0.0953265
-0.0965634
-0.0986357
-0.101386
-0.104454
-0.107236
-0.108932
-0.108958
-0.106976
-0.103179
-0.0982825
-0.0932768
-0.089184
-0.0867583
-0.0862649
-0.0873052
-0.0890289
-0.090354
-0.0903256
-0.0883949
-0.0845367
-0.0792754
-0.0735269
-0.0684032
-0.0649955
-0.0640107
-0.0658079
-0.0701262
-0.0762961
-0.0834797
-0.0907509
-0.0974115
-0.103091
-0.107688
-0.111387
-0.114572
-0.117699
-0.121159
-0.125209
-0.129673
-0.133906
-0.136939
-0.137627
-0.135057
-0.12883
-0.119233
-0.107192
-0.09388
-0.080528
-0.0680106
-0.0567387
-0.0466689
-0.0373405
-0.0282015
-0.0186583
-0.00833473
0.00273346
0.0141054
0.0250613
0.0348662
0.0430973
0.0496927
0.0550775
0.0598599
0.0647787
0.0702893
0.0764586
0.0830403
0.0894862
0.0951325
0.0993339
0.101557
0.101647
0.0996777
0.096207
0.0921102
0.0884486
0.0861401
0.085699
0.0872047
0.0902984
0.0941671
0.0980036
0.101049
0.102832
0.1031
0.101913
0.0995783
0.0964378
0.0929349
0.0893466
0.0857841
0.0822306
0.0784513
0.0742724
0.0695877
0.06445
0.0591316
0.0538975
0.0490739
0.044898
0.0415649
0.0391859
0.0379144
0.0378216
0.038867
0.0406079
0.0424276
0.0433879
0.0426896
0.0398863
0.0353611
0.0300163
0.0250801
0.0217226
0.0204747
0.0211031
0.0227374
0.0241564
0.0244388
0.0230726
0.020251
0.0166323
0.0131271
0.0104089
0.00881719
0.00834365
0.00861361
0.00912642
0.00942671
0.00927208
0.00855173
0.0074217
0.00609326
0.00481238
0.00374366
0.00303229
0.00261541
0.00233708
0.00198912
0.0013884
0.000403091
-0.000923546
-0.00245296
-0.00398941
-0.00552282
-0.00700754
-0.00844854
-0.00974072
-0.0108094
-0.011323
-0.0109675
-0.00952328
-0.00680661
-0.00286522
0.00219015
0.00811158
0.0147259
0.0218675
0.0294922
0.0374867
0.0456764
0.0538648
0.0617045
0.0688764
0.0751103
0.0802754
0.0843964
0.0875467
0.0897175
0.0907675
0.090505
0.0886546
0.0851655
0.0801553
0.0740794
0.0674668
0.0610841
0.0556893
0.0520521
0.0508062
0.0520634
0.0553228
0.0593106
0.0622133
0.0619014
0.0568408
0.0465347
0.0317342
0.0144542
-0.00277411
-0.0174799
-0.0280374
-0.0339866
-0.0359476
-0.0352321
-0.0334217
-0.0318846
-0.0313964
-0.0322976
-0.0343726
-0.0371843
-0.0402063
-0.0431091
-0.0456633
-0.0478532
-0.0496
-0.0507643
-0.0511154
-0.0502949
-0.0482767
-0.045581
-0.0436061
-0.0445328
-0.0509793
-0.0652365
-0.0882916
-0.118887
-0.15265
-0.182008
-0.196909
-0.186406
-0.140481
-0.0521674
0.0806107
0.254361
0.460037
0.683742
0.908044
1.11295
1.27734
1.38064
1.40542
1.34137
1.18934
0.963447
0.690484
0.405541
0.144585
-0.0637265
-0.204104
-0.27682
-0.295022
-0.278779
-0.248319
-0.218882
-0.198467
-0.188534
-0.18655
-0.188843
-0.192304
-0.195287
-0.1974
-0.198807
-0.199816
-0.200382
-0.200343
-0.199639
-0.198189
-0.196202
-0.194051
-0.192006
-0.190181
-0.18849
-0.186757
-0.18467
-0.18217
-0.179325
-0.176414
-0.173778
-0.171653
-0.170077
-0.168977
-0.168165
-0.167463
-0.166836
-0.166305
-0.165934
-0.165816
-0.165898
-0.166065
-0.166163
-0.166025
-0.165537
-0.164786
-0.163809
-0.16263
-0.161361
-0.159952
-0.15841
-0.156667
-0.15474
-0.152566
-0.150267
-0.147967
-0.145825
-0.144108
-0.143051
-0.142784
-0.143255
-0.144189
-0.145107
-0.145463
-0.144827
-0.142973
-0.140155
-0.136903
-0.134026
-0.132305
-0.132242
-0.133917
-0.137036
-0.141133
-0.145642
-0.150255
-0.154818
-0.159394
-0.163979
-0.168403
-0.17231
-0.175063
-0.175932
-0.174238
-0.169507
-0.16156
-0.150534
-0.136915
-0.121351
-0.104542
-0.0871962
-0.0698945
-0.0530323
-0.0369531
-0.0218494
-0.00790658
0.00478849
0.0162625
0.026674
0.036377
0.0457723
0.0552406
0.0649343
0.0748143
0.0845568
0.0937034
0.101966
0.109215
0.115482
0.120902
0.125515
0.129235
0.131875
0.133144
0.132922
0.131165
0.128073
0.12398
0.119289
0.114503
0.110087
0.106397
0.103624
0.101684
0.10028
0.0990677
0.0977088
0.0960985
0.0943539
0.0927287
0.0915035
0.0907405
0.0903463
0.0899436
0.089138
0.0876459
0.0855473
0.0831114
0.0807719
0.0789285
0.0777768
0.0771483
0.0766394
0.0757625
0.0741202
0.0714516
0.067732
0.0631481
0.0580082
0.0527045
0.0476874
0.0433246
0.0399005
0.0375269
0.0360518
0.0350589
0.0341204
0.0328666
0.0311165
0.0289817
0.0267926
0.0249124
0.0236376
0.0230412
0.0229726
0.0232003
0.0233936
0.0233109
0.0228539
0.0219862
0.0206548
0.0189096
0.0167641
0.0143693
0.0118518
0.00943201
0.00724348
0.00530848
0.00364325
0.00209107
0.000616144
-0.000729652
-0.00185828
-0.00268961
-0.00320032
-0.00345084
-0.00356902
-0.00376135
-0.00423792
-0.00500036
-0.00595859
-0.0069352
-0.00771983
-0.00807426
-0.00785986
-0.00704168
-0.00551083
-0.00323645
-0.000184547
0.00372255
0.00853112
0.0141366
0.0203416
0.0268447
0.0332416
0.0393165
0.0450419
0.0506662
0.0565027
0.0629192
0.0699007
0.0771383
0.0839095
0.0894391
0.0930789
0.0945287
0.0938911
0.0915734
0.0881338
0.0839313
0.0792782
0.0743668
0.0694941
0.0651559
0.0620402
0.060826
0.0621792
0.0662031
0.0723175
0.0790608
0.0844261
0.0861842
0.0826147
0.0730238
0.0578408
0.0386689
0.0178578
-0.00217393
-0.0194103
-0.0326742
-0.0416388
-0.0467979
-0.0490987
-0.049651
-0.0495576
-0.0495143
-0.0500307
-0.0511494
-0.0527151
-0.0544647
-0.0560127
-0.0569731
-0.0572386
-0.0567328
-0.0558231
-0.0552741
-0.0565211
-0.0614932
-0.0723598
-0.0909866
-0.118221
-0.153113
-0.191588
-0.226194
-0.246172
-0.238157
-0.187993
-0.0838732
0.0796011
0.297177
0.550103
0.805969
1.02323
1.16004
1.18584
1.09122
0.8925
0.628425
0.349442
0.103377
-0.0771132
-0.181197
-0.218467
-0.211262
-0.184682
-0.158366
-0.142393
-0.138039
-0.141781
-0.148943
-0.156143
-0.161815
-0.165885
-0.168723
-0.170484
-0.171084
-0.170362
-0.168445
-0.165647
-0.162382
-0.159189
-0.15639
-0.154254
-0.153017
-0.152756
-0.153323
-0.154433
-0.155588
-0.15632
-0.156259
-0.155286
-0.153507
-0.151206
-0.148639
-0.146
-0.14338
-0.140747
-0.13813
-0.135636
-0.133328
-0.13135
-0.129604
-0.127974
-0.126157
-0.123893
-0.121091
-0.117786
-0.114248
-0.110791
-0.107798
-0.10545
-0.103876
-0.103021
-0.102813
-0.103111
-0.103854
-0.10508
-0.1067
-0.108614
-0.110607
-0.112273
-0.113221
-0.113252
-0.112337
-0.110733
-0.108871
-0.107133
-0.105812
-0.104916
-0.104292
-0.103747
-0.103089
-0.102146
-0.100891
-0.0993686
-0.0976943
-0.0961241
-0.0950419
-0.0948243
-0.0957936
-0.0980449
-0.10141
-0.105262
-0.108828
-0.111088
-0.111097
-0.108005
-0.1014
-0.0911879
-0.0778126
-0.062069
-0.0450851
-0.0280698
-0.0119328
0.00269874
0.015705
0.0273204
0.0380193
0.0481654
0.058031
0.0675547
0.0764916
0.0844529
0.0911135
0.0961949
0.0996671
0.101618
0.10234
0.102195
0.101565
0.100808
0.100183
0.0997202
0.0994361
0.0992503
0.0991377
0.0990107
0.0988349
0.098508
0.0978333
0.0967816
0.0953448
0.0937243
0.0921839
0.0909349
0.0900207
0.0892146
0.0881382
0.0863279
0.0834944
0.0796564
0.0751302
0.0704062
0.0659613
0.06214
0.0589988
0.056396
0.0540492
0.0516673
0.0490462
0.0460937
0.0427952
0.0392672
0.0356013
0.0319951
0.0287281
0.0259405
0.023842
0.0224697
0.0216766
0.0213167
0.0210738
0.0207084
0.020021
0.0189615
0.0175471
0.0159496
0.0143539
0.0128638
0.0115371
0.0102444
0.00878547
0.0069392
0.00467985
0.00206337
-0.000722637
-0.00341689
-0.00587685
-0.00798738
-0.00974774
-0.0112092
-0.0123956
-0.013285
-0.0138859
-0.0142734
-0.0144374
-0.014499
-0.0145298
-0.0145551
-0.014556
-0.0144894
-0.0143832
-0.0143111
-0.0144531
-0.0149465
-0.0159627
-0.017519
-0.0194859
-0.0215685
-0.0235856
-0.0253408
-0.0267334
-0.027695
-0.0280234
-0.0273984
-0.0253464
-0.0213475
-0.0152517
-0.00710087
0.00252886
0.0129239
0.0232361
0.0328612
0.0415863
0.0495329
0.0569901
0.0642408
0.0714301
0.0784168
0.0847679
0.0898153
0.0928316
0.093137
0.0903337
0.0844204
0.0760694
0.0664214
0.0569481
0.0489676
0.0434443
0.0406029
0.0401396
0.0415046
0.0442819
0.0481897
0.0530086
0.0581429
0.0625713
0.06488
0.063681
0.0580782
0.0482082
0.0350776
0.0203431
0.00568081
-0.00760854
-0.0189054
-0.0281094
-0.0354371
-0.0411555
-0.0454136
-0.0483329
-0.0500816
-0.0509347
-0.0511766
-0.0512835
-0.0516235
-0.0524661
-0.0539621
-0.0560595
-0.0585298
-0.0609232
-0.0627041
-0.0634132
-0.0628035
-0.0610468
-0.0589878
-0.0583418
-0.0614148
-0.0706928
-0.0881497
-0.114417
-0.147878
-0.184064
-0.215451
-0.232157
-0.22312
-0.177227
-0.0852077
0.0576373
0.248577
0.474848
0.712283
0.927108
1.08158
1.14326
1.09474
0.940504
0.707684
0.439427
0.18309
-0.0228919
-0.157962
-0.222036
-0.231048
-0.208571
-0.176805
-0.150752
-0.136414
-0.132939
-0.13637
-0.142412
-0.14808
-0.15212
-0.154598
-0.156045
-0.157026
-0.157943
-0.158919
-0.15978
-0.160079
-0.159283
-0.157073
-0.153457
-0.148846
-0.144004
-0.139791
-0.136702
-0.134949
-0.134216
-0.134099
-0.133991
-0.133543
-0.13252
-0.130976
-0.129062
-0.126943
-0.124832
-0.1228
-0.120915
-0.119206
-0.117672
-0.116338
-0.115198
-0.114235
-0.113489
-0.112958
-0.112745
-0.112882
-0.113362
-0.114099
-0.11485
-0.115338
-0.115387
-0.114819
-0.113686
-0.111993
-0.109824
-0.107243
-0.104356
-0.101339
-0.09857
-0.0963797
-0.0950413
-0.0946109
-0.0949219
-0.0955878
-0.0962634
-0.0966921
-0.0969329
-0.0971611
-0.0976019
-0.0984899
-0.0999179
-0.10178
-0.104004
-0.106505
-0.109176
-0.111969
-0.114719
-0.117249
-0.119227
-0.120237
-0.119934
-0.117984
-0.114198
-0.108554
-0.100985
-0.0915977
-0.0805911
-0.0683496
-0.0553605
-0.0422824
-0.0297497
-0.0182393
-0.00788801
0.00153812
0.0104648
0.0193546
0.028546
0.0378607
0.0470026
0.0554113
0.0626023
0.0684226
0.0729815
0.0766275
0.0798073
0.0827885
0.0856525
0.0882842
0.0905689
0.0924678
0.0940643
0.0956155
0.0973386
0.0993037
0.101369
0.103163
0.10425
0.104206
0.102923
0.100502
0.0972547
0.0935575
0.0896869
0.085888
0.0821728
0.0786322
0.075255
0.0720919
0.0691113
0.0662712
0.0634573
0.0606442
0.0579182
0.0554571
0.0533918
0.0518691
0.050878
0.0501865
0.0495469
0.0487507
0.0475845
0.0459493
0.0437182
0.0408959
0.0374818
0.0335829
0.0294677
0.0254826
0.0219715
0.0192031
0.0172884
0.016134
0.0155261
0.0149777
0.013991
0.0120245
0.00871401
0.00390962
-0.00213559
-0.00880103
-0.0152803
-0.0207686
-0.024735
-0.0269555
-0.0275927
-0.0270371
-0.0257335
-0.024081
-0.0223851
-0.0209191
-0.0199149
-0.019606
-0.0201747
-0.0216015
-0.0236733
-0.0259559
-0.0278528
-0.0288354
-0.0286469
-0.0272483
-0.0250465
-0.0227028
-0.021014
-0.0206245
-0.0219
-0.0247086
-0.0283939
-0.0320139
-0.0346459
-0.0356694
-0.0350083
-0.0331255
-0.0308522
-0.0290989
-0.0283915
-0.0287843
-0.0296895
-0.0302266
-0.0294528
-0.0267313
-0.0218287
-0.0150326
-0.00695639
0.00170747
0.0103995
0.0187042
0.0263955
0.033392
0.0396399
0.0451115
0.0498728
0.0540877
0.0579723
0.0616838
0.0652201
0.0684211
0.0709407
0.0724708
0.0728172
0.0720242
0.070266
0.0678192
0.0649433
0.0619006
0.0590963
0.0570694
0.0565108
0.057995
0.061535
0.0663261
0.0707893
0.0728603
0.0707178
0.0632155
0.0503961
0.0334493
0.0142329
-0.00521328
-0.0231505
-0.0383218
-0.0499623
-0.0578227
-0.0618504
-0.0624851
-0.0603956
-0.0564866
-0.0517912
-0.0470703
-0.0430474
-0.0400481
-0.0382924
-0.0378786
-0.0388977
-0.0414031
-0.0452294
-0.0498332
-0.0542274
-0.0572773
-0.058081
-0.0562715
-0.0524359
-0.0480389
-0.0453247
-0.0468158
-0.0547903
-0.0708033
-0.0951994
-0.126921
-0.163143
-0.198781
-0.226695
-0.237981
-0.222388
-0.169743
-0.0718637
0.0743751
0.264086
0.482076
0.702317
0.891256
1.01452
1.04575
0.974795
0.812208
0.587638
0.342061
0.11665
-0.0580662
-0.168492
-0.218417
-0.223883
-0.205471
-0.181089
-0.161623
-0.150562
-0.146413
-0.145842
-0.145928
-0.145313
-0.144079
-0.142927
-0.142423
-0.142703
-0.143557
-0.144582
-0.145265
-0.145207
-0.144043
-0.141661
-0.138103
-0.133778
-0.129254
-0.125155
-0.122043
-0.120112
-0.119192
-0.118899
-0.11875
-0.11835
-0.117623
-0.116607
-0.115531
-0.114564
-0.113726
-0.112876
-0.111852
-0.110488
-0.108728
-0.106746
-0.104729
-0.10272
-0.100805
-0.0989018
-0.0969948
-0.0950448
-0.0930618
-0.0910812
-0.089094
-0.0870025
-0.0846767
-0.08212
-0.0795327
-0.0772522
-0.075735
-0.0753599
-0.0761087
-0.0776951
-0.079465
-0.0805837
-0.0805217
-0.0790956
-0.0766652
-0.0740692
-0.0723953
-0.0724409
-0.0746542
-0.0788393
-0.0842642
-0.0899894
-0.0950899
-0.0990208
-0.101711
-0.103404
-0.104639
-0.105985
-0.107734
-0.109894
-0.112316
-0.114692
-0.116743
-0.118154
-0.118669
-0.117899
-0.115366
-0.110729
-0.103735
-0.0945873
-0.0839741
-0.0729844
-0.0627292
-0.0539789
-0.0468427
-0.0407131
-0.0344257
-0.0267389
-0.0168229
-0.00440992
0.00991589
0.0250423
0.0396737
0.052853
0.0639011
0.0727146
0.0795888
0.0849702
0.0894777
0.0934263
0.0971043
0.100566
0.103775
0.10664
0.109214
0.111444
0.113269
0.114448
0.11457
0.113175
0.110014
0.105138
0.0991259
0.0929158
0.0874465
0.0833273
0.0807821
0.0794656
0.0788283
0.0781848
0.0772422
0.0758444
0.0740952
0.072103
0.0698017
0.0671214
0.0639385
0.0603217
0.0564972
0.0529946
0.0502033
0.0484138
0.0475548
0.0472278
0.0468511
0.0457426
0.0434139
0.0397011
0.0347656
0.0290961
0.0236182
0.0193683
0.0172412
0.0177288
0.0206536
0.025115
0.0298054
0.0333178
0.0347064
0.033796
0.0310934
0.0276073
0.024338
0.0218958
0.0203402
0.0191236
0.0175048
0.0149069
0.0112953
0.00713462
0.00326367
0.00054547
-0.000679038
-0.000657236
-0.000172971
-0.000107312
-0.00116153
-0.00337065
-0.00616765
-0.00852714
-0.00945698
-0.00830811
-0.0051981
-0.00070483
0.00407783
0.00805923
0.0104534
0.0107966
0.00916419
0.00587614
0.00141884
-0.00361456
-0.00865487
-0.0132388
-0.0169457
-0.0193979
-0.0202962
-0.0193807
-0.0164921
-0.0116148
-0.00491805
0.00307156
0.0116703
0.0199917
0.0273524
0.0333289
0.0380234
0.0419771
0.0460055
0.0508286
0.0569506
0.064199
0.0719608
0.079284
0.0850859
0.0885389
0.0891989
0.0870603
0.0825281
0.0763703
0.0693406
0.0622654
0.0560352
0.0514758
0.0493992
0.0503609
0.0544352
0.0609908
0.0686973
0.0756947
0.0800401
0.0800778
0.0748477
0.0643116
0.0493965
0.031769
0.013391
-0.00368505
-0.0179185
-0.0284891
-0.035392
-0.0394559
-0.0418936
-0.0438528
-0.0461273
-0.0489844
-0.0521022
-0.0549223
-0.0569764
-0.0581105
-0.0585293
-0.0586266
-0.0588484
-0.0593824
-0.0600743
-0.0605437
-0.0603645
-0.0591834
-0.056936
-0.0538627
-0.0505527
-0.0478155
-0.0465469
-0.047864
-0.0529026
-0.0628064
-0.0785846
-0.100571
-0.128204
-0.159401
-0.189829
-0.21304
-0.220805
-0.203795
-0.152613
-0.0594779
0.0793943
0.261227
0.474421
0.697443
0.900283
1.04938
1.11525
1.08071
0.947274
0.73627
0.484323
0.233707
0.0213578
-0.129704
-0.214155
-0.242
-0.232306
-0.205641
-0.177775
-0.157153
-0.14576
-0.141487
-0.141061
-0.141812
-0.142468
-0.142917
-0.143388
-0.143986
-0.14458
-0.144847
-0.144398
-0.142969
-0.140489
-0.136993
-0.132636
-0.127694
-0.122565
-0.117641
-0.113372
-0.110133
-0.108182
-0.107625
-0.108311
-0.109864
-0.111864
-0.113829
-0.11534
-0.116235
-0.11644
-0.11596
-0.11491
-0.113386
-0.111544
-0.109556
-0.10765
-0.105949
-0.104653
-0.103642
-0.102687
-0.101493
-0.0996962
-0.097096
-0.093694
-0.0897452
-0.0857359
-0.0822735
-0.0799304
-0.0790197
-0.0795844
-0.0812958
-0.0836137
-0.0859256
-0.0877275
-0.0887249
-0.088926
-0.0885842
-0.0880121
-0.0875067
-0.0872125
-0.087138
-0.0871627
-0.0871803
-0.0870948
-0.0869973
-0.087073
-0.0875243
-0.0885889
-0.0903907
-0.092954
-0.0962464
-0.10008
-0.104255
-0.108468
-0.112509
-0.116178
-0.119336
-0.121688
-0.122881
-0.122383
-0.119572
-0.113974
-0.10549
-0.0945842
-0.0822567
-0.0698529
-0.0586427
-0.0494655
-0.0426123
-0.0376325
-0.0336998
-0.0298195
-0.0250498
-0.0188254
-0.0108929
-0.0013554
0.00950226
0.0211898
0.0332027
0.0450662
0.0564549
0.0672607
0.0774632
0.0869908
0.0957118
0.103321
0.109494
0.113957
0.116683
0.117895
0.118082
0.117702
0.117154
0.1166
0.116018
0.115247
0.114183
0.112842
0.11127
0.109702
0.108389
0.107579
0.107426
0.107903
0.108858
0.109944
0.110778
0.110902
0.110051
0.108166
0.105373
0.102092
0.0987678
0.0957551
0.0932432
0.0911619
0.089188
0.0869883
0.0842991
0.0810825
0.0775207
0.073869
0.0703968
0.0672246
0.0644218
0.0618809
0.0595271
0.0573161
0.0552064
0.0533407
0.0518181
0.050726
0.0500218
0.0496258
0.049287
0.0487168
0.047796
0.0465017
0.0450758
0.0439575
0.0436576
0.0444467
0.0462568
0.0486505
0.0508653
0.0520731
0.05157
0.049095
0.0448827
0.0395538
0.0338722
0.028547
0.0239796
0.0202623
0.0171914
0.014511
0.0119862
0.00955521
0.0072844
0.00519964
0.00333738
0.00165376
4.74636e-5
-0.00144601
-0.00271696
-0.00353703
-0.00370378
-0.00317332
-0.00215131
-0.00107225
-0.000438671
-0.000731969
-0.00214184
-0.00455966
-0.00764284
-0.0108736
-0.0137471
-0.0158143
-0.0168798
-0.0169188
-0.0159769
-0.0142287
-0.0116958
-0.00827804
-0.00373465
0.00219085
0.00957348
0.0181684
0.027446
0.036689
0.045292
0.0530449
0.0600504
0.0668122
0.0738198
0.0813004
0.0890357
0.0962723
0.101985
0.105188
0.105266
0.102131
0.0963777
0.0889129
0.0808593
0.073201
0.0666959
0.0618906
0.0591621
0.058752
0.060636
0.0644257
0.0691295
0.073348
0.0754854
0.0741901
0.0688044
0.0595938
0.0477192
0.0347466
0.022274
0.011531
0.00287799
-0.00391979
-0.00956509
-0.0148237
-0.020175
-0.0258038
-0.0315609
-0.037125
-0.0421571
-0.04651
-0.0501948
-0.0532589
-0.0557916
-0.0578335
-0.0593931
-0.0604226
-0.0609126
-0.0609051
-0.0604155
-0.059418
-0.0578048
-0.0554283
-0.0523069
-0.048614
-0.0448295
-0.0419612
-0.0414597
-0.0452209
-0.0551257
-0.0726082
-0.098109
-0.130244
-0.165572
-0.198129
-0.219967
-0.221857
-0.194313
-0.128418
-0.0173587
0.141563
0.34427
0.577365
0.816838
1.02958
1.17879
1.23287
1.17512
1.0106
0.766986
0.488001
0.221591
0.00689829
-0.135053
-0.204045
-0.216435
-0.196562
-0.167376
-0.144337
-0.133409
-0.133452
-0.139935
-0.148225
-0.155243
-0.159954
-0.162591
-0.163802
-0.164059
-0.163549
-0.162345
-0.160518
-0.158049
-0.155019
-0.151591
-0.148024
-0.144727
-0.142032
-0.140172
-0.139164
-0.138769
-0.138593
-0.13837
-0.137878
-0.137195
-0.136441
-0.135798
-0.135276
-0.134726
-0.133849
-0.13236
-0.130111
-0.127208
-0.12398
-0.120799
-0.118039
-0.115867
-0.114146
-0.112689
-0.111255
-0.109726
-0.108114
-0.106593
-0.10528
-0.104318
-0.103686
-0.10338
-0.103435
-0.103883
-0.10477
-0.105994
-0.107289
-0.108175
-0.108158
-0.106822
-0.104129
-0.100311
-0.096005
-0.0918401
-0.088304
-0.0856084
-0.0836903
-0.0822486
-0.0810716
-0.0801549
-0.0796377
-0.0798643
-0.0811104
-0.0835516
-0.087132
-0.0915052
-0.0962904
-0.101064
-0.105511
-0.109445
-0.112718
-0.115091
-0.116169
-0.115304
-0.111807
-0.105134
-0.0950834
-0.082114
-0.0672775
-0.0520384
-0.0379618
-0.0262743
-0.0176009
-0.0118189
-0.00825814
-0.00581487
-0.00343067
-0.000224994
0.00428367
0.0103149
0.0177248
0.026277
0.035645
0.0453912
0.0550256
0.0640632
0.0721611
0.0791845
0.0852441
0.0905738
0.0954564
0.10002
0.10425
0.107932
0.110952
0.113244
0.114896
0.116006
0.116714
0.116977
0.116678
0.115681
0.113846
0.111322
0.108335
0.105351
0.102856
0.101198
0.100609
0.101067
0.102517
0.104789
0.107739
0.111257
0.115358
0.119987
0.125054
0.130272
0.135171
0.139355
0.142438
0.144327
0.145314
0.146037
0.147212
0.149509
0.153057
0.157383
0.16148
0.163957
0.16362
0.159524
0.151415
0.139546
0.124611
0.107739
0.0899523
0.0723522
0.0558209
0.0410122
0.0281988
0.0173335
0.00800237
-0.000232978
-0.00776046
-0.0146713
-0.020764
-0.0257548
-0.0294982
-0.0321659
-0.0342015
-0.0363091
-0.0391012
-0.0428885
-0.0475338
-0.0525669
-0.0574734
-0.061709
-0.0650731
-0.0676183
-0.0696301
-0.0716077
-0.0738823
-0.0766071
-0.079662
-0.0825776
-0.0847241
-0.0855589
-0.0847538
-0.08252
-0.0795243
-0.0771228
-0.0772031
-0.0820407
-0.0939986
-0.11483
-0.144869
-0.182167
-0.221651
-0.255182
-0.272508
-0.262751
-0.216179
-0.12574
0.0114929
0.192967
0.409128
0.642476
0.867464
1.05286
1.16695
1.185
1.09728
0.913899
0.664234
0.390365
0.136177
-0.0638173
-0.192233
-0.250533
-0.254871
-0.228195
-0.192289
-0.162006
-0.143786
-0.137348
-0.138862
-0.143903
-0.149114
-0.152934
-0.155131
-0.156169
-0.156438
-0.156286
-0.155781
-0.15502
-0.15408
-0.153035
-0.15213
-0.151444
-0.151076
-0.150947
-0.150833
-0.150489
-0.149702
-0.148383
-0.146496
-0.144172
-0.141477
-0.138483
-0.135201
-0.131647
-0.127834
-0.123853
-0.119906
-0.116243
-0.113036
-0.110416
-0.108474
-0.107148
-0.106384
-0.106174
-0.106439
-0.107079
-0.107847
-0.108539
-0.108895
-0.108784
-0.108207
-0.107288
-0.10615
-0.104884
-0.103503
-0.101876
-0.0998988
-0.0976214
-0.0953014
-0.0932553
-0.0918743
-0.0912593
-0.0912534
-0.0914715
-0.0914729
-0.0911131
-0.0905248
-0.0901821
-0.0907265
-0.0924332
-0.0953068
-0.098844
-0.102445
-0.105553
-0.108099
-0.110336
-0.112814
-0.115981
-0.120013
-0.124533
-0.128795
-0.131856
-0.132854
-0.131229
-0.126712
-0.11945
-0.109696
-0.0978375
-0.0843131
-0.0697045
-0.0547387
-0.040252
-0.027196
-0.0163741
-0.00819286
-0.00276147
0.000299052
0.00161349
0.00204291
0.0023824
0.00337897
0.00544259
0.00880435
0.0133713
0.0189365
0.0251847
0.0318222
0.038696
0.04573
0.0529279
0.0600994
0.0669828
0.0731675
0.0782718
0.082096
0.0847302
0.0864951
0.0878556
0.0892301
0.0908144
0.0925624
0.0941439
0.0951933
0.0953689
0.0945112
0.0925231
0.0895172
0.0857082
0.0813131
0.0767546
0.0723371
0.0682782
0.0647532
0.061774
0.059334
0.0573065
0.0556372
0.0542224
0.0529317
0.0516226
0.0501523
0.0485793
0.0469535
0.0454825
0.0442791
0.043367
0.0424036
0.0410167
0.0387278
0.0352973
0.0307884
0.0256444
0.020479
0.0159756
0.0126817
0.01075
0.00999472
0.0100399
0.0103288
0.01044
0.0101325
0.00956363
0.00909204
0.00915975
0.0101675
0.0122309
0.0151894
0.0184607
0.0213731
0.0233499
0.0241156
0.0236875
0.0224786
0.0209418
0.0193297
0.0176892
0.0157138
0.0131586
0.00996219
0.00633798
0.00289051
0.000244351
-0.0010514
-0.00090249
0.000524857
0.00265465
0.00487557
0.00659923
0.00752768
0.00751882
0.0067416
0.00547439
0.00409526
0.00306317
0.00267955
0.00302644
0.00407098
0.00549676
0.00690842
0.00787449
0.00810276
0.00741422
0.00596148
0.00390546
0.00158228
-0.000598308
-0.00225905
-0.00305788
-0.00283284
-0.00165339
0.000105932
0.00199028
0.00348353
0.00429117
0.00427856
0.00364649
0.00267134
0.00177813
0.00126086
0.00132103
0.00215021
0.00380067
0.00617752
0.00907857
0.012196
0.0151228
0.0175672
0.0193764
0.0205228
0.0211587
0.0214917
0.021672
0.0217926
0.0218055
0.0216797
0.0213365
0.0207881
0.0199998
0.0190488
0.0178819
0.0164775
0.0148264
0.0130061
0.0112908
0.010018
0.00952917
0.0100299
0.0115056
0.0136291
0.0160511
0.0182497
0.0198835
0.0208403
0.02105
0.0205376
0.0194178
0.017755
0.0157457
0.0136152
0.01174
0.0103269
0.0095864
0.00941129
0.00959222
0.00981993
0.0099625
0.010091
0.0104935
0.0116283
0.0138001
0.0172278
0.0219035
0.0276343
0.0341419
0.0410351
0.0478345
0.0540418
0.0592471
0.0629916
0.065197
0.0661095
0.0662318
0.0662994
0.066887
0.0684509
0.0709975
0.0743398
0.0779221
0.0811232
0.0833881
0.0842374
0.0834582
0.0810081
0.0771492
0.0722624
0.0669899
0.0621982
0.0588449
0.0575252
0.0583147
0.0604759
0.0626232
0.0629413
0.0597793
0.0522514
0.0404025
0.0253061
0.00858464
-0.00811231
-0.0233094
-0.0361186
-0.046099
-0.0532421
-0.0578222
-0.0602939
-0.0613512
-0.0616493
-0.0618472
-0.0622628
-0.0630396
-0.0639691
-0.0646106
-0.0645476
-0.0634752
-0.0612937
-0.0583543
-0.0552462
-0.052941
-0.0522964
-0.0541254
-0.0589047
-0.0668889
-0.0783123
-0.0934537
-0.112851
-0.136841
-0.16486
-0.194225
-0.219486
-0.23215
-0.221221
-0.174665
-0.0819179
0.0624813
0.255007
0.480379
0.711017
0.910424
1.04085
1.07316
0.99614
0.821557
0.582095
0.322707
0.0880556
-0.089405
-0.19625
-0.23811
-0.233708
-0.206181
-0.174982
-0.151733
-0.139914
-0.137567
-0.140789
-0.146078
-0.151515
-0.156413
-0.160762
-0.164431
-0.167019
-0.168022
-0.16709
-0.164178
-0.159651
-0.154127
-0.148268
-0.142737
-0.138
-0.134269
-0.131494
-0.12938
-0.127571
-0.12575
-0.123708
-0.121494
-0.119288
-0.117363
-0.115869
-0.11483
-0.114008
-0.113026
-0.111424
-0.108998
-0.105772
-0.102225
-0.0990908
-0.0971657
-0.0970277
-0.0987348
-0.101849
-0.105592
-0.109034
-0.111366
-0.112144
-0.111387
-0.109479
-0.106976
-0.104427
-0.10225
-0.10071
-0.0997005
-0.0990747
-0.0985687
-0.0979425
-0.0969622
-0.0954805
-0.0934405
-0.0909067
-0.0880391
-0.0852848
-0.0831564
-0.0821751
-0.0825059
-0.0839967
-0.0862689
-0.088758
-0.0910318
-0.0930466
-0.0951165
-0.097772
-0.101402
-0.106098
-0.11151
-0.117122
-0.122247
-0.126376
-0.129291
-0.130752
-0.130615
-0.12863
-0.124389
-0.117627
-0.10828
-0.0967577
-0.0839
-0.0708042
-0.0585296
-0.0478175
-0.0390723
-0.0320537
-0.0261961
-0.0206984
-0.0147323
-0.00761425
0.000996404
0.0111187
0.0224593
0.0344728
0.0465463
0.0581298
0.0686654
0.0779347
0.0858684
0.092433
0.0977995
0.102155
0.105572
0.10813
0.109778
0.110468
0.110171
0.108984
0.107076
0.104785
0.102495
0.100425
0.0987984
0.0976889
0.0970765
0.0970338
0.0976613
0.0990834
0.101278
0.104053
0.106723
0.108379
0.108135
0.105295
0.0998596
0.0924307
0.0840453
0.0759433
0.0689658
0.0635542
0.0596458
0.0569447
0.0551484
0.0541063
0.0537955
0.0541399
0.0549102
0.0557146
0.0561118
0.0558413
0.0549429
0.0536697
0.0523946
0.0512051
0.0498868
0.047902
0.044669
0.0398389
0.0334845
0.0262747
0.0190748
0.0128482
0.0082655
0.00558867
0.00456347
0.00455909
0.0047304
0.00432855
0.00286237
0.00015093
-0.00360341
-0.00807958
-0.0129206
-0.0178242
-0.0224117
-0.0263018
-0.0288694
-0.0294936
-0.0278017
-0.0238851
-0.0185082
-0.0130491
-0.00886268
-0.00702721
-0.00779647
-0.010744
-0.0148487
-0.0190775
-0.022599
-0.025179
-0.0269237
-0.0281788
-0.029238
-0.0302992
-0.0313304
-0.0322596
-0.033135
-0.034025
-0.0349762
-0.0358023
-0.0360493
-0.0349911
-0.0319279
-0.0263828
-0.0183574
-0.00840866
0.00255075
0.013478
0.0234636
0.0320835
0.0393276
0.0455772
0.0514294
0.0572839
0.063157
0.0685496
0.0725752
0.0742287
0.0728639
0.0684932
0.0619051
0.0545448
0.0480693
0.0437254
0.0421496
0.0432908
0.0463173
0.0501066
0.0533623
0.0547178
0.0531704
0.0480252
0.0391338
0.0270721
0.0129034
-0.00195967
-0.0158871
-0.0275831
-0.0363357
-0.0418753
-0.0445832
-0.0451051
-0.0441639
-0.0425506
-0.0410039
-0.0399671
-0.039869
-0.0409909
-0.0434863
-0.0472918
-0.0522229
-0.057866
-0.0635062
-0.0684071
-0.0718115
-0.0730609
-0.0720645
-0.0690434
-0.0648706
-0.0610878
-0.0597017
-0.0629432
-0.0728998
-0.090983
-0.117243
-0.149568
-0.182828
-0.208597
-0.21536
-0.189301
-0.117212
0.00933362
0.18968
0.410102
0.642664
0.848914
0.988327
1.02943
0.959929
0.791729
0.558383
0.305713
0.0786737
-0.0908575
-0.190515
-0.226927
-0.219208
-0.19007
-0.158289
-0.134656
-0.122206
-0.118963
-0.121246
-0.12559
-0.129719
-0.132762
-0.134491
-0.135048
-0.134707
-0.133954
-0.133241
-0.132921
-0.13298
-0.133274
-0.133559
-0.13368
-0.133535
-0.133125
-0.132473
-0.131537
-0.130274
-0.128617
-0.126568
-0.124105
-0.121272
-0.118197
-0.115175
-0.112677
-0.110993
-0.110407
-0.110689
-0.111227
-0.111173
-0.109646
-0.106286
-0.101361
-0.0958077
-0.0908069
-0.0874736
-0.0863758
-0.087479
-0.0900445
-0.0930441
-0.0954195
-0.0964757
-0.095974
-0.0941202
-0.0914954
-0.0887002
-0.0861979
-0.0842808
-0.0830022
-0.082283
-0.0819782
-0.0820708
-0.0825174
-0.0834737
-0.0849482
-0.0868985
-0.0892417
-0.0917723
-0.0943185
-0.0966692
-0.0987291
-0.10051
-0.102111
-0.103729
-0.105619
-0.107981
-0.111078
-0.114999
-0.119754
-0.125226
-0.131001
-0.1366
-0.14144
-0.144795
-0.146017
-0.144392
-0.139328
-0.130483
-0.117832
-0.101698
-0.0829685
-0.0629645
-0.0432049
-0.0251976
-0.0100562
0.00180442
0.0106279
0.0173516
0.0231841
0.0292067
0.0361776
0.0442754
0.0532775
0.0626335
0.0717977
0.0802587
0.0876383
0.0937789
0.0986486
0.102424
0.105513
0.108262
0.11098
0.113842
0.116713
0.119233
0.120929
0.121375
0.120401
0.117974
0.114407
0.110162
0.105767
0.101719
0.0983569
0.0958339
0.0941491
0.0932143
0.0929042
0.0931399
0.0938664
0.0949989
0.0963501
0.0975465
0.0982358
0.0980718
0.0968356
0.0946082
0.0916606
0.0884196
0.0851262
0.0818172
0.0783246
0.0743015
0.0695242
0.0641911
0.0588696
0.0542562
0.0511599
0.0499389
0.0504533
0.0522297
0.0544714
0.0563933
0.057518
0.0576346
0.0567363
0.0550356
0.0527263
0.0500439
0.0472639
0.0445828
0.0421939
0.0402088
0.0386858
0.0374558
0.0365122
0.0358128
0.0353366
0.0352927
0.0357246
0.036608
0.0377471
0.0389004
0.0397126
0.0399843
0.0396957
0.0389198
0.0378521
0.0366308
0.035278
0.0337113
0.0318369
0.0295087
0.0267164
0.0235538
0.0201995
0.0168444
0.0136687
0.0107893
0.00825377
0.00613976
0.00451254
0.00348524
0.00316532
0.00345378
0.00423191
0.00530542
0.00653658
0.00797241
0.0098412
0.0125542
0.0163878
0.0215122
0.0277506
0.034687
0.0419054
0.0490859
0.0561491
0.0631755
0.070271
0.0775846
0.0848503
0.0915727
0.0970816
0.100592
0.101534
0.0997563
0.0955503
0.0896042
0.0829434
0.0766914
0.0718479
0.0691827
0.0692271
0.0718886
0.076519
0.0818749
0.0861903
0.0875792
0.0844752
0.0762417
0.0630755
0.046261
0.0276055
0.00906481
-0.00768331
-0.0217285
-0.0326311
-0.0404584
-0.0455875
-0.0485129
-0.0499091
-0.0503913
-0.0505774
-0.0508688
-0.0513722
-0.0520314
-0.0525504
-0.0526963
-0.0524989
-0.0520723
-0.0515907
-0.0511066
-0.050467
-0.0494813
-0.048131
-0.0468805
-0.0467697
-0.0493068
-0.0560665
-0.0681146
-0.0859378
-0.109272
-0.137372
-0.168872
-0.20195
-0.233782
-0.260022
-0.274758
-0.270446
-0.238032
-0.167849
-0.0514645
0.115187
0.328116
0.571989
0.818757
1.03058
1.1673
1.19763
1.10967
0.916747
0.655318
0.375097
0.124842
-0.060869
-0.16927
-0.208711
-0.201336
-0.172893
-0.143938
-0.125268
-0.118579
-0.120114
-0.124872
-0.129018
-0.130981
-0.130979
-0.129933
-0.1287
-0.12768
-0.127101
-0.127036
-0.127515
-0.128545
-0.13001
-0.131572
-0.132848
-0.133591
-0.133562
-0.132781
-0.13144
-0.129759
-0.127889
-0.125957
-0.123925
-0.121708
-0.11926
-0.11655
-0.113637
-0.110597
-0.107509
-0.10447
-0.101625
-0.0991121
-0.0971422
-0.0958161
-0.0951252
-0.0949513
-0.0950896
-0.095245
-0.0951564
-0.0946664
-0.0937814
-0.0925669
-0.0911734
-0.0897713
-0.0884447
-0.0871516
-0.0858285
-0.0844465
-0.0829843
-0.0815585
-0.0803775
-0.0796958
-0.0796547
-0.0801686
-0.0810467
-0.0819387
-0.0825996
-0.0829254
-0.0829904
-0.0829661
-0.0830393
-0.0833307
-0.0838493
-0.0846782
-0.0859103
-0.0877986
-0.0904441
-0.0937819
-0.0976086
-0.101481
-0.104825
-0.107323
-0.108851
-0.10948
-0.109396
-0.108789
-0.10757
-0.105388
-0.101703
-0.0958381
-0.0872865
-0.0759222
-0.0621121
-0.0467604
-0.030978
-0.0158588
-0.00209427
0.0101479
0.0212111
0.0316193
0.0419229
0.0523961
0.0629882
0.0734256
0.0836189
0.093785
0.104423
0.116414
0.130495
0.146945
0.165387
0.184702
0.203193
0.219251
0.2317
0.240123
0.244981
0.247152
0.247656
0.246981
0.245076
0.241246
0.234687
0.22476
0.211509
0.19572
0.178716
0.162116
0.14732
0.135185
0.125833
0.11883
0.113359
0.108521
0.10365
0.0983542
0.0924298
0.0859409
0.0789635
0.0715618
0.0638088
0.0557399
0.0473641
0.0387116
0.0296816
0.0203208
0.0107416
0.00127766
-0.00761928
-0.0152958
-0.0214614
-0.0260616
-0.0294356
-0.0322094
-0.0351074
-0.0385481
-0.0426351
-0.0471422
-0.0515828
-0.0554639
-0.0585275
-0.0606763
-0.0619758
-0.0627633
-0.0631503
-0.0633103
-0.0632036
-0.0626647
-0.061533
-0.0597653
-0.0575527
-0.0555952
-0.0553017
-0.0586241
-0.0677231
-0.0843698
-0.108863
-0.138992
-0.16941
-0.19138
-0.194044
-0.16629
-0.0986743
0.014491
0.173709
0.373354
0.601475
0.839741
1.06432
1.24807
1.36387
1.39006
1.31596
1.14621
0.90205
0.617954
0.334099
0.0871778
-0.0978711
-0.212304
-0.263071
-0.267918
-0.248258
-0.222631
-0.202605
-0.192484
-0.190979
-0.194255
-0.198653
-0.201954
-0.2036
-0.203957
-0.203725
-0.203329
-0.20279
-0.201797
-0.199985
-0.197134
-0.193367
-0.188951
-0.184403
-0.180141
-0.176448
-0.173441
-0.170963
-0.168899
-0.167071
-0.165419
-0.163934
-0.162637
-0.161518
-0.16049
-0.159497
-0.158409
-0.157108
-0.155471
-0.153385
-0.150913
-0.148258
-0.145693
-0.143516
-0.141929
-0.140814
-0.139917
-0.138939
-0.137706
-0.136253
-0.134982
-0.134364
-0.134784
-0.136359
-0.138816
-0.141606
-0.144148
-0.146003
-0.146979
-0.147033
-0.146324
-0.145033
-0.143456
-0.141891
-0.140736
-0.140433
-0.141279
-0.143418
-0.14675
-0.15092
-0.155422
-0.159811
-0.163782
-0.167185
-0.17002
-0.172458
-0.174671
-0.176854
-0.179086
-0.18135
-0.183341
-0.184685
-0.184674
-0.182478
-0.177234
-0.168291
-0.155303
-0.138376
-0.118083
-0.0954627
-0.0718206
-0.0485566
-0.0270437
-0.00841244
0.00668235
0.018105
0.0262345
0.0318528
0.0358813
0.0391543
0.0422231
0.0452964
0.0483467
0.0512449
0.0537901
0.0559627
0.0577126
0.0590767
0.0600769
0.0607675
0.0611967
0.0614527
0.0616036
0.0616741
0.0615797
0.0611468
0.0601979
0.0585502
0.0561177
0.0529424
0.0492402
0.0452942
0.0414263
0.0378698
0.0347514
0.0320825
0.0297759
0.0276437
0.0255022
0.0231691
0.0206527
0.0179447
0.0152203
0.0127417
0.0107552
0.00938732
0.0087179
0.00866923
0.00908855
0.00976088
0.0105234
0.0113362
0.0122068
0.0132493
0.014506
0.0159921
0.0175245
0.0188522
0.0195715
0.019443
0.0183814
0.0165341
0.014188
0.0117443
0.00949323
0.00763915
0.00628517
0.00544069
0.00515086
0.00542214
0.00624076
0.00742066
0.00878826
0.00999439
0.0107358
0.0108751
0.010447
0.00967409
0.00894696
0.00867461
0.00903767
0.0101262
0.011716
0.0134652
0.0150749
0.0162083
0.0167553
0.0166414
0.0158945
0.0146033
0.0128697
0.0108129
0.00853456
0.00612067
0.00365447
0.00120228
-0.00112409
-0.00317485
-0.00492893
-0.00626507
-0.00717682
-0.00775047
-0.00810204
-0.00828881
-0.00835368
-0.00825331
-0.00777433
-0.00686897
-0.00541291
-0.00349225
-0.00122581
0.00115023
0.00337485
0.00523933
0.00662446
0.00747114
0.00783775
0.00779918
0.00739146
0.00671344
0.00580657
0.00472142
0.00339715
0.00180306
-6.64459e-5
-0.00213416
-0.00410245
-0.00560707
-0.00630709
-0.00594722
-0.00449152
-0.0022684
0.000334169
0.0027906
0.00476031
0.00615767
0.00708718
0.00783373
0.00864081
0.00969566
0.0109418
0.0122911
0.0133674
0.0138569
0.0135153
0.0122346
0.0101145
0.0074065
0.00443274
0.00161148
-0.000684489
-0.00221324
-0.00297955
-0.0031488
-0.00303957
-0.00294287
-0.00300135
-0.003035
-0.0028454
-0.00198314
-0.000200626
0.00266521
0.00663037
0.0117344
0.0180167
0.0254284
0.0337405
0.0423023
0.0502796
0.0567499
0.0611083
0.0633765
0.0642744
0.0649161
0.0665004
0.0697563
0.0746939
0.0806637
0.0865264
0.0910549
0.0933983
0.0931433
0.090428
0.0857724
0.0799186
0.0735876
0.0675238
0.0623436
0.0586676
0.0571217
0.0581264
0.0616562
0.0670122
0.072739
0.0768774
0.0774938
0.0733093
0.0640264
0.0505216
0.0345491
0.0181551
0.0029979
-0.00992621
-0.0204293
-0.0287374
-0.0352704
-0.0403961
-0.0443005
-0.0471119
-0.0489976
-0.050161
-0.0509003
-0.0515472
-0.0522808
-0.0531977
-0.0542781
-0.055392
-0.0564089
-0.0572313
-0.0577621
-0.0578527
-0.0573953
-0.0563509
-0.054829
-0.0531455
-0.051853
-0.0520378
-0.0551581
-0.0629799
-0.0770834
-0.0985519
-0.127178
-0.160866
-0.195088
-0.222789
-0.235062
-0.222017
-0.173722
-0.0818289
0.0581975
0.24464
0.46671
0.702951
0.922115
1.08788
1.16697
1.13885
1.00325
0.7824
0.516217
0.251469
0.0288671
-0.126861
-0.211223
-0.236895
-0.226061
-0.201333
-0.179074
-0.166778
-0.164613
-0.168956
-0.175532
-0.181291
-0.185037
-0.186811
-0.187061
-0.186294
-0.184735
-0.182578
-0.1799
-0.176802
-0.17334
-0.169652
-0.165946
-0.16254
-0.15971
-0.157631
-0.156297
-0.155626
-0.155343
-0.155222
-0.155036
-0.154611
-0.153876
-0.152853
-0.151693
-0.15062
-0.149887
-0.149557
-0.149442
-0.149095
-0.148026
-0.145765
-0.142274
-0.137893
-0.133324
-0.129284
-0.126322
-0.124518
-0.12353
-0.122742
-0.121622
-0.119908
-0.117657
-0.115307
-0.113385
-0.112245
-0.111988
-0.112444
-0.113307
-0.114318
-0.115353
-0.116399
-0.117534
-0.118777
-0.120009
-0.120963
-0.12124
-0.120439
-0.11835
-0.114979
-0.110717
-0.106243
-0.102313
-0.0997123
-0.0989081
-0.10005
-0.102878
-0.106785
-0.111146
-0.115277
-0.118695
-0.121034
-0.122156
-0.121976
-0.120381
-0.117322
-0.112729
-0.106651
-0.0990977
-0.090224
-0.0802304
-0.0692876
-0.0576697
-0.0457816
-0.0340467
-0.0230983
-0.0134796
-0.00557818
0.000508115
0.00507649
0.00862165
0.0117316
0.0149167
0.0185282
0.022745
0.0276814
0.033386
0.0398595
0.0470376
0.0547402
0.0626372
0.07039
0.0776497
0.0841185
0.0896296
0.0940239
0.0972705
0.0993057
0.100125
0.099836
0.0985561
0.0964651
0.0936354
0.090092
0.0858679
0.0811346
0.0761726
0.0715718
0.0680063
0.0659987
0.0657548
0.0669724
0.0690556
0.0711772
0.0726045
0.0729584
0.0722527
0.0707818
0.0689938
0.0673068
0.0657565
0.0641938
0.0622439
0.0596303
0.0563426
0.0526019
0.0488348
0.045382
0.0423971
0.0397393
0.0369995
0.033757
0.0297644
0.0249885
0.0197593
0.0145104
0.00973072
0.00599334
0.00354389
0.00251847
0.00266545
0.00343058
0.00405611
0.00386693
0.00245231
-0.000124066
-0.00328522
-0.00629298
-0.008307
-0.0089202
-0.00816524
-0.00645106
-0.00447086
-0.00296451
-0.00249731
-0.00338083
-0.00569037
-0.00934298
-0.0139883
-0.0191985
-0.0244342
-0.0292379
-0.0331913
-0.0362162
-0.0383061
-0.0398754
-0.0412437
-0.0427344
-0.0444456
-0.0462663
-0.0478345
-0.0487994
-0.0489301
-0.048201
-0.0468764
-0.0454711
-0.044402
-0.0440218
-0.044315
-0.0448286
-0.0449598
-0.0441388
-0.0421437
-0.0390989
-0.0356246
-0.0324535
-0.030259
-0.0293203
-0.0295374
-0.0305062
-0.0316941
-0.0324813
-0.0323441
-0.0308378
-0.0276306
-0.0225705
-0.0158282
-0.00777494
0.000966558
0.00977237
0.0180107
0.0254431
0.0320819
0.0382282
0.0442
0.0501533
0.0560331
0.0614704
0.0661429
0.0696944
0.0719309
0.0727766
0.0722073
0.0703177
0.0672453
0.0633185
0.0590146
0.0549102
0.0515106
0.0490578
0.0474359
0.0463228
0.0455313
0.0451695
0.0456673
0.0473974
0.0502375
0.0534235
0.0553792
0.0542863
0.0487112
0.0380332
0.0227874
0.00456468
-0.0145302
-0.0324522
-0.0476438
-0.0592607
-0.0671724
-0.0718365
-0.0740216
-0.0745196
-0.0739772
-0.0726787
-0.0706965
-0.0679171
-0.0644619
-0.0607939
-0.0576525
-0.0557913
-0.0556924
-0.0572636
-0.0597644
-0.0622549
-0.0638519
-0.0641551
-0.0634287
-0.0624675
-0.0624251
-0.0646128
-0.070329
-0.0807799
-0.0970385
-0.119667
-0.148302
-0.181064
-0.214275
-0.242879
-0.261087
-0.263446
-0.245306
-0.203081
-0.133289
-0.0324755
0.101804
0.268726
0.460953
0.66182
0.845427
0.980519
1.03821
1.00097
0.869467
0.664333
0.421371
0.18194
-0.0181382
-0.157225
-0.231071
-0.250506
-0.234706
-0.203855
-0.173243
-0.150826
-0.138173
-0.132922
-0.13165
-0.131549
-0.131298
-0.130652
-0.129737
-0.128693
-0.127545
-0.126264
-0.125002
-0.124011
-0.123646
-0.124068
-0.125215
-0.126744
-0.128096
-0.12866
-0.127935
-0.125662
-0.121856
-0.116839
-0.111209
-0.105572
-0.10054
-0.0966435
-0.0941355
-0.0930636
-0.0933253
-0.0946215
-0.0965973
-0.0988374
-0.100831
-0.102167
-0.102507
-0.101815
-0.100319
-0.0984087
-0.0964628
-0.0947213
-0.0931555
-0.0915569
-0.0897945
-0.0879381
-0.0862963
-0.0853492
-0.0856328
-0.0873189
-0.0902419
-0.0938966
-0.097691
-0.101001
-0.103321
-0.104348
-0.103894
-0.102008
-0.0988985
-0.0949071
-0.0906
-0.086416
-0.0827972
-0.0799717
-0.0780261
-0.0770355
-0.077139
-0.0784307
-0.0810501
-0.0849774
-0.0899272
-0.0954408
-0.101006
-0.106141
-0.11061
-0.114423
-0.117762
-0.120944
-0.124071
-0.126862
-0.128685
-0.12854
-0.125372
-0.118406
-0.107601
-0.093865
-0.0788894
-0.0648488
-0.053595
-0.0462418
-0.0428348
-0.0422842
-0.0428251
-0.0426783
-0.0402912
-0.034824
-0.0261668
-0.0146476
-0.000981712
0.0139158
0.0291117
0.0435703
0.0563436
0.0667242
0.0743588
0.0792045
0.0816971
0.0825325
0.0824745
0.082273
0.0824183
0.0830743
0.0842452
0.0857266
0.087204
0.0885024
0.0895538
0.0903219
0.0909149
0.0912876
0.0912441
0.0905546
0.0889191
0.0861345
0.0821918
0.0772545
0.0717154
0.0661759
0.0613342
0.057912
0.0565197
0.0574785
0.0606552
0.065335
0.0703302
0.0742067
0.0757066
0.0741851
0.0696762
0.0630311
0.0554766
0.0481122
0.0417503
0.0365784
0.0323489
0.0287444
0.0255579
0.0228477
0.0208893
0.019914
0.0199017
0.0204869
0.0209991
0.0207513
0.0193643
0.0168815
0.0137621
0.010685
0.00817144
0.00643602
0.00537762
0.00459039
0.00373113
0.00277686
0.00207055
0.00216784
0.0035775
0.00657069
0.0108114
0.0155343
0.0196143
0.0219467
0.0217873
0.0189143
0.0138457
0.00750364
0.000984754
-0.00484636
-0.00953969
-0.0130022
-0.0154538
-0.0169254
-0.0173771
-0.0165482
-0.0142956
-0.010818
-0.00674982
-0.00298345
-0.000210674
0.00123816
0.00155457
0.00125566
0.000856684
0.000454439
-0.000205805
-0.00164325
-0.00432038
-0.00820136
-0.0127736
-0.0170451
-0.0199817
-0.0207335
-0.0189734
-0.0148743
-0.0089624
-0.00199588
0.00535949
0.0124415
0.0189084
0.0246421
0.0297976
0.0348857
0.0405687
0.0475631
0.0562932
0.0665853
0.0774585
0.0873879
0.0946994
0.0981745
0.0974484
0.0932114
0.08693
0.0801647
0.0740874
0.0690894
0.0649507
0.0612092
0.0577725
0.0549553
0.0533344
0.0531932
0.0540975
0.0548998
0.053979
0.0498951
0.0420207
0.0306663
0.0171218
0.00311761
-0.009791
-0.0205093
-0.0285057
-0.0337522
-0.036533
-0.0373123
-0.0367352
-0.035552
-0.0345073
-0.0341542
-0.0346843
-0.0359524
-0.0375134
-0.0389284
-0.0399749
-0.0408714
-0.0420742
-0.0440633
-0.0468812
-0.0501535
-0.0531387
-0.055187
-0.0562561
-0.0570409
-0.0588839
-0.0631491
-0.07052
-0.0807109
-0.092565
-0.104841
-0.116887
-0.129311
-0.143645
-0.161305
-0.18245
-0.204737
-0.222957
-0.229536
-0.215808
-0.173064
-0.0938613
0.0267729
0.189274
0.387504
0.606573
0.822151
1.00268
1.11522
1.13419
1.04973
0.87248
0.632539
0.371739
0.132679
-0.0526413
-0.169404
-0.221017
-0.224026
-0.200241
-0.16929
-0.143749
-0.128429
-0.122361
-0.121897
-0.123192
-0.123745
-0.122787
-0.120808
-0.118739
-0.11735
-0.117125
-0.118014
-0.119597
-0.121159
-0.122051
-0.12188
-0.120564
-0.11845
-0.115905
-0.113508
-0.111529
-0.110162
-0.109387
-0.108929
-0.10855
-0.10786
-0.106574
-0.104396
-0.101311
-0.097468
-0.093208
-0.0889156
-0.0850369
-0.0818225
-0.0793805
-0.0777317
-0.0767329
-0.0762667
-0.0762531
-0.0766625
-0.077486
-0.078725
-0.0802602
-0.0818941
-0.0833967
-0.0845414
-0.0852009
-0.0853264
-0.0849701
-0.0843269
-0.0834458
-0.0824273
-0.081243
-0.0798228
-0.0781125
-0.076149
-0.0740545
-0.072038
-0.0702959
-0.0690418
-0.0685019
-0.0688145
-0.0700562
-0.0723125
-0.0755512
-0.0797596
-0.0847755
-0.0904005
-0.0964221
-0.102619
-0.108876
-0.11509
-0.121269
-0.127359
-0.133244
-0.13872
-0.143554
-0.147452
-0.150011
-0.150762
-0.1491
-0.144388
-0.13609
-0.124105
-0.1089
-0.0916231
-0.0739163
-0.057544
-0.0440248
-0.0341143
-0.0277109
-0.0238269
-0.0211061
-0.0181107
-0.0137763
-0.00753348
0.000610265
0.0102371
0.0208189
0.0317937
0.0428314
0.0536705
0.0642319
0.0745597
0.0845833
0.0941642
0.103057
0.110853
0.117115
0.121406
0.12359
0.12375
0.122321
0.119918
0.117284
0.115018
0.113498
0.112725
0.112444
0.112256
0.111807
0.110899
0.109562
0.108032
0.106629
0.105577
0.104927
0.104577
0.104274
0.103738
0.102823
0.101493
0.0998192
0.0980667
0.0963683
0.0950508
0.0941409
0.0936891
0.0936683
0.0939873
0.0944728
0.0949065
0.0949476
0.094244
0.0923668
0.0890555
0.0842539
0.0781475
0.0713046
0.0645471
0.0586788
0.0544646
0.0522207
0.0518751
0.0529907
0.0548111
0.0565762
0.0577444
0.0580276
0.057455
0.0562642
0.0546359
0.0527907
0.0508297
0.0487756
0.0466314
0.0443978
0.0421217
0.0398674
0.0376462
0.0355484
0.0335418
0.0315846
0.029769
0.0282118
0.0270946
0.0266255
0.0267995
0.0273942
0.0279953
0.0280191
0.0270103
0.0248543
0.0216972
0.0181065
0.0146312
0.0117685
0.00972735
0.00853588
0.0079948
0.00790544
0.00807808
0.00844724
0.00890774
0.00932303
0.00954378
0.00936434
0.00863723
0.00739232
0.00580949
0.00434865
0.00357758
0.00419412
0.00673654
0.0116074
0.0188564
0.0281598
0.0388162
0.0498119
0.0600824
0.0686824
0.0750401
0.0791811
0.0816478
0.0832474
0.0849736
0.0875334
0.091243
0.0958044
0.100434
0.104214
0.106171
0.10569
0.102753
0.0977349
0.0915074
0.0850887
0.0795934
0.0758301
0.0745584
0.0760293
0.0800106
0.0854941
0.0909091
0.0942704
0.0937745
0.0882579
0.077596
0.0627052
0.045324
0.0274781
0.0109114
-0.00311885
-0.0140852
-0.0219579
-0.0271445
-0.0301948
-0.0317776
-0.032517
-0.0330149
-0.0336187
-0.0345673
-0.0358948
-0.0375537
-0.0393171
-0.040995
-0.0422932
-0.043026
-0.0429489
-0.0420157
-0.040221
-0.0377647
-0.0349014
-0.032017
-0.0296025
-0.0282216
-0.0287777
-0.0324505
-0.0408368
-0.0554847
-0.0775245
-0.106777
-0.141357
-0.176659
-0.205422
-0.218375
-0.20519
-0.155935
-0.0622942
0.0801096
0.269818
0.497112
0.742493
0.976894
1.16499
1.2722
1.27351
1.16209
0.953395
0.682903
0.39734
0.142016
-0.0506776
-0.168161
-0.217311
-0.21829
-0.195468
-0.16916
-0.150958
-0.143873
-0.145263
-0.150483
-0.155714
-0.158994
-0.16028
-0.160345
-0.160125
-0.160194
-0.160743
-0.161833
-0.16332
-0.165192
-0.167289
-0.169417
-0.171457
-0.173093
-0.174033
-0.17402
-0.172864
-0.17045
-0.166896
-0.162595
-0.158003
-0.153678
-0.150071
-0.147425
-0.145638
-0.144528
-0.14377
-0.143051
-0.142263
-0.141395
-0.140526
-0.139721
-0.139007
-0.138313
-0.137639
-0.136926
-0.136121
-0.135206
-0.134073
-0.132688
-0.13104
-0.129212
-0.127305
-0.125534
-0.123991
-0.122622
-0.121254
-0.11956
-0.117313
-0.114454
-0.111246
-0.10817
-0.105746
-0.104466
-0.104621
-0.106229
-0.109024
-0.112619
-0.116494
-0.120178
-0.123228
-0.125373
-0.126556
-0.126914
-0.126823
-0.12677
-0.12718
-0.128354
-0.130351
-0.133021
-0.136009
-0.13884
-0.141001
-0.141954
-0.141123
-0.137817
-0.131531
-0.121769
-0.108556
-0.0923805
-0.0744595
-0.056439
-0.0401533
-0.0269727
-0.0175673
-0.011577
-0.00787449
-0.00479765
-0.000817804
0.00512076
0.0133492
0.0235252
0.0347636
0.0461358
0.0568085
0.0662814
0.074404
0.0812284
0.0869806
0.0919045
0.096248
0.100096
0.103635
0.106911
0.109983
0.112782
0.115275
0.117305
0.118747
0.11949
0.119478
0.118699
0.11722
0.115178
0.112802
0.110295
0.107807
0.10546
0.103231
0.101006
0.0985946
0.0959537
0.0930917
0.0902028
0.0875027
0.0852029
0.0833818
0.0819735
0.0807955
0.0796815
0.0785785
0.077518
0.0765474
0.0756761
0.0747277
0.0735087
0.071635
0.068993
0.0656244
0.0617526
0.0576624
0.0536153
0.0497479
0.0461029
0.042705
0.0395593
0.0367721
0.0343597
0.0321458
0.0298715
0.0272698
0.0242025
0.0207817
0.0173854
0.0145077
0.0126251
0.0118859
0.0121726
0.0130628
0.0140431
0.0146752
0.0145956
0.013705
0.0119482
0.00940941
0.00612173
0.00225185
-0.00198283
-0.00620459
-0.010094
-0.013336
-0.015742
-0.0173122
-0.0181708
-0.0184241
-0.0182223
-0.0176328
-0.0166891
-0.0154116
-0.0139112
-0.0124092
-0.0112834
-0.0108067
-0.0111501
-0.012275
-0.0138646
-0.015434
-0.0166112
-0.0170492
-0.0167947
-0.0161135
-0.0154023
-0.0149726
-0.0148434
-0.014679
-0.0138014
-0.0113952
-0.006683
0.000691417
0.0105269
0.0220061
0.0338678
0.0448584
0.0540576
0.0611857
0.0665769
0.0709972
0.0753119
0.0799652
0.0848202
0.089309
0.0925543
0.0937676
0.0926103
0.0891766
0.0840409
0.0779399
0.0716674
0.0659292
0.0613831
0.0586383
0.0582429
0.0605034
0.065114
0.0710824
0.0767391
0.0802304
0.080136
0.0759166
0.0680436
0.0577674
0.0465919
0.035696
0.025555
0.0160748
0.00697527
-0.00190793
-0.010398
-0.0180141
-0.0242068
-0.0287931
-0.0319091
-0.0340216
-0.0357252
-0.0374898
-0.0395739
-0.0420067
-0.0446301
-0.0472149
-0.0496242
-0.0517724
-0.0535229
-0.0547245
-0.0551896
-0.0548668
-0.0538682
-0.0526535
-0.0519473
-0.0530321
-0.0574834
-0.0670005
-0.0830151
-0.106175
-0.13563
-0.168173
-0.197747
-0.215409
-0.210556
-0.172426
-0.0923398
0.0340571
0.205127
0.412989
0.644391
0.882456
1.10862
1.30397
1.45016
1.53014
1.53005
1.44219
1.26872
1.02423
0.735445
0.437451
0.166242
-0.0495345
-0.19505
-0.271495
-0.293129
-0.28094
-0.255556
-0.232049
-0.217606
-0.212761
-0.214301
-0.218383
-0.222137
-0.224369
-0.225139
-0.225141
-0.225086
-0.225487
-0.226677
-0.22871
-0.231302
-0.233909
-0.235789
-0.236335
-0.235233
-0.232719
-0.229433
-0.226198
-0.223799
-0.222642
-0.222613
-0.223224
-0.223866
-0.223848
-0.222771
-0.220467
-0.217176
-0.21321
-0.209067
-0.205204
-0.202063
-0.199794
-0.198421
-0.197806
-0.197538
-0.197203
-0.196579
-0.195579
-0.194448
-0.193539
-0.193184
-0.193492
-0.194254
-0.195027
-0.19527
-0.194614
-0.193023
-0.1908
-0.188435
-0.186423
-0.184966
-0.184106
-0.183578
-0.18317
-0.182742
-0.1824
-0.182227
-0.182419
-0.182963
-0.183656
-0.184331
-0.184899
-0.185457
-0.186265
-0.187618
-0.189646
-0.19235
-0.195534
-0.198869
-0.202008
-0.204623
-0.206318
-0.206632
-0.205066
-0.201076
-0.194144
-0.183966
-0.170551
-0.154142
-0.1352
-0.114481
-0.0928616
-0.0714324
-0.0512432
-0.0332489
-0.0180338
-0.00578819
0.00385786
0.0116179
0.0184108
0.0250535
0.031994
0.0393338
0.0468069
0.0539397
0.0603237
0.0656484
0.0697853
0.0727898
0.0748784
0.0763529
0.0774088
0.0781748
0.0788141
0.0793698
0.0798677
0.0804358
0.0811602
0.082139
0.0833842
0.0848219
0.0862024
0.0872862
0.0877326
0.0873132
0.0858983
0.0833949
0.0800017
0.0760372
0.0719443
0.0681546
0.0649212
0.0622568
0.0599964
0.0578379
0.0555301
0.0528996
0.0500613
0.0471955
0.0444489
0.0418814
0.0395525
0.0373266
0.0351377
0.0329891
0.0308524
0.0286929
0.0265483
0.024337
0.0220336
0.019645
0.0171715
0.0146473
0.011997
0.00915552
0.0059751
0.00241222
-0.0014505
-0.00536192
-0.00900729
-0.0120768
-0.0144547
-0.0162793
-0.0178864
-0.0196106
-0.0216457
-0.0238824
-0.0261206
-0.0280109
-0.0293316
-0.0300365
-0.0302424
-0.0301522
-0.0299552
-0.0297558
-0.0295959
-0.0294968
-0.0295376
-0.029815
-0.0303794
-0.0312103
-0.0321426
-0.0329739
-0.0334822
-0.0335918
-0.0333388
-0.0328807
-0.0325
-0.032262
-0.0322105
-0.0321528
-0.0318312
-0.0309217
-0.0292893
-0.0269215
-0.0240422
-0.0210453
-0.0182535
-0.0158122
-0.0135936
-0.0111525
-0.0078934
-0.00323462
0.00297378
0.0105385
0.018874
0.0272243
0.0348852
0.0415489
0.0471284
0.0518728
0.0561756
0.0603665
0.0647512
0.0693178
0.0740258
0.0785959
0.082721
0.0859888
0.0880681
0.088588
0.0873621
0.0844163
0.0799368
0.074508
0.0689027
0.064155
0.0612233
0.0604816
0.0616775
0.0635785
0.0644076
0.0622083
0.0556298
0.0442376
0.0288473
0.0112676
-0.00627178
-0.0216933
-0.0336515
-0.041632
-0.0459396
-0.047347
-0.0468112
-0.0453338
-0.0437728
-0.042746
-0.0426621
-0.0436765
-0.045687
-0.048443
-0.0515303
-0.0545613
-0.0571765
-0.0590694
-0.0600311
-0.059958
-0.0589347
-0.0573307
-0.055944
-0.0561109
-0.0597164
-0.0687549
-0.0849174
-0.108941
-0.140022
-0.175003
-0.208088
-0.230997
-0.233579
-0.204529
-0.133087
-0.0116882
0.160825
0.37563
0.611895
0.837427
1.01375
1.10499
1.08831
0.962132
0.748445
0.48774
0.227693
0.00996752
-0.140409
-0.219144
-0.239396
-0.22386
-0.195434
-0.170408
-0.155938
-0.151751
-0.153813
-0.157711
-0.160491
-0.161239
-0.160416
-0.158936
-0.157583
-0.156708
-0.156323
-0.156223
-0.156063
-0.15554
-0.154397
-0.152622
-0.150421
-0.148105
-0.14598
-0.144256
-0.14302
-0.142198
-0.141695
-0.141273
-0.140787
-0.140139
-0.139323
-0.138407
-0.137516
-0.136685
-0.135987
-0.135385
-0.134745
-0.133972
-0.133031
-0.131942
-0.130823
-0.129716
-0.128618
-0.127388
-0.12587
-0.123884
-0.121367
-0.118388
-0.115199
-0.112112
-0.109409
-0.107214
-0.105427
-0.103875
-0.102357
-0.100805
-0.0992616
-0.097991
-0.0972063
-0.097145
-0.0978362
-0.0990965
-0.100712
-0.102366
-0.103947
-0.105499
-0.107205
-0.109347
-0.112065
-0.115168
-0.118249
-0.120678
-0.121839
-0.121487
-0.119795
-0.117409
-0.115247
-0.114184
-0.114703
-0.116761
-0.119655
-0.122273
-0.123336
-0.121556
-0.116146
-0.106864
-0.0940263
-0.0785604
-0.0617129
-0.0449631
-0.0295347
-0.0163893
-0.00595619
0.00200489
0.00803754
0.0129419
0.0175739
0.0225963
0.0283185
0.0348036
0.041817
0.0489802
0.0558628
0.0620934
0.0673653
0.0715524
0.0746898
0.0769754
0.078573
0.0795294
0.079888
0.0796314
0.0787294
0.0772278
0.0753181
0.0732181
0.0709756
0.0685999
0.0659897
0.0628494
0.0591571
0.0549412
0.0506003
0.0467018
0.0438083
0.0422098
0.041826
0.0422089
0.0426952
0.0425481
0.0414517
0.0395008
0.0372181
0.0352478
0.0341352
0.0340701
0.0346883
0.0352903
0.0349665
0.0330401
0.0291903
0.0235651
0.0167975
0.00987298
0.00365231
-0.00116989
-0.00439796
-0.00617646
-0.00705216
-0.00761218
-0.00834069
-0.00944449
-0.0108207
-0.0122301
-0.0134961
-0.0144576
-0.0151071
-0.0154828
-0.0156438
-0.0155691
-0.0152916
-0.0148945
-0.014634
-0.0148121
-0.0156372
-0.0170082
-0.0186415
-0.0199911
-0.0205967
-0.0203783
-0.0194267
-0.0181826
-0.0171184
-0.0166021
-0.0166047
-0.0170775
-0.0177445
-0.0184541
-0.0191155
-0.0197959
-0.0205754
-0.0214604
-0.0224692
-0.0235653
-0.0247727
-0.026208
-0.0279251
-0.0298671
-0.0317544
-0.0330273
-0.0327863
-0.0303142
-0.0250279
-0.0170055
-0.00691943
0.00408372
0.0146243
0.0235163
0.0301253
0.0346434
0.0377199
0.040438
0.0437562
0.0481909
0.053627
0.0593714
0.0644339
0.0678757
0.0691486
0.0681941
0.0655055
0.061926
0.0582847
0.0553121
0.0534859
0.0531326
0.0543236
0.0571052
0.0610736
0.0654607
0.0689092
0.069698
0.0660861
0.0569879
0.0423643
0.0233948
0.00228062
-0.0183586
-0.0362457
-0.0498994
-0.0589732
-0.063872
-0.0654497
-0.0646207
-0.0621689
-0.0587466
-0.0549683
-0.0514844
-0.0488625
-0.0476346
-0.0478671
-0.0493518
-0.0513387
-0.0528591
-0.0529526
-0.0511819
-0.0477128
-0.0435021
-0.0401425
-0.0395978
-0.0436892
-0.0536686
-0.0699375
-0.0921065
-0.119022
-0.148972
-0.179534
-0.20751
-0.228565
-0.237084
-0.225933
-0.186413
-0.109477
0.0116994
0.178163
0.381317
0.600242
0.803042
0.952453
1.01553
0.974188
0.832325
0.616419
0.368607
0.134492
-0.0496423
-0.165535
-0.214944
-0.214761
-0.188151
-0.156143
-0.131971
-0.12008
-0.118549
-0.122585
-0.127713
-0.13113
-0.132144
-0.131284
-0.129492
-0.127491
-0.125783
-0.124612
-0.123977
-0.123743
-0.123561
-0.123038
-0.121648
-0.11906
-0.115223
-0.110509
-0.105732
-0.101913
-0.0999328
-0.100249
-0.102752
-0.106715
-0.110982
-0.1143
-0.11554
-0.11425
-0.110647
-0.105562
-0.100206
-0.0956947
-0.0926712
-0.0911498
-0.0904449
-0.0895245
-0.0874355
-0.0837161
-0.0787186
-0.0733923
-0.0689611
-0.0663135
-0.0657259
-0.0666425
-0.0678869
-0.0682126
-0.0668965
-0.0640902
-0.0608014
-0.0583612
-0.0577843
-0.0592992
-0.0623037
-0.065681
-0.0684034
-0.0701061
-0.0710508
-0.0720976
-0.0739966
-0.0770118
-0.080772
-0.084418
-0.0871465
-0.0886832
-0.089321
-0.0899212
-0.0915258
-0.0947876
-0.0997069
-0.105628
-0.111534
-0.116582
-0.120389
-0.123191
-0.125538
-0.127989
-0.130494
-0.132269
-0.13187
-0.127772
-0.118706
-0.104228
-0.0849094
-0.0621221
-0.0378585
-0.0141595
0.00721243
0.025184
0.0393347
0.0500291
0.058071
0.0644758
0.0702743
0.076166
0.0824821
0.0892658
0.0962812
0.103336
0.110148
0.11637
0.121558
0.125326
0.127395
0.127741
0.126647
0.124738
0.12264
0.120971
0.120051
0.11969
0.119513
0.118953
0.117543
0.115006
0.111405
0.107022
0.102305
0.097765
0.0937536
0.0904926
0.0881025
0.0864807
0.0856007
0.085315
0.085402
0.0855708
0.0853835
0.0844712
0.0824136
0.0791461
0.0747931
0.0698611
0.065041
0.0609476
0.0580217
0.0564255
0.0558259
0.0556268
0.0550998
0.0536267
0.0509151
0.0470637
0.0425319
0.0379311
0.0339208
0.0308898
0.0289382
0.0280207
0.0278596
0.0281314
0.0286986
0.0294448
0.0304515
0.0317519
0.0334386
0.0354162
0.0374547
0.0392765
0.0406681
0.0416051
0.0421404
0.0423872
0.0423678
0.0419269
0.0407918
0.0386423
0.0352995
0.0309309
0.0259706
0.0210727
0.0167551
0.0133478
0.0108833
0.00911238
0.00766708
0.00629076
0.00482255
0.00333031
0.00199656
0.00103668
0.000552181
0.000582998
0.00118233
0.00238292
0.00424715
0.00677769
0.0100022
0.0138927
0.0184099
0.0235944
0.029408
0.035849
0.0427632
0.049822
0.0566339
0.0628197
0.0682539
0.0731247
0.0779036
0.0830269
0.0887833
0.0949392
0.100698
0.105175
0.107426
0.107145
0.104649
0.100749
0.0964668
0.092635
0.0896457
0.0875527
0.0862888
0.0858867
0.0865351
0.0881991
0.0904596
0.0921306
0.0915469
0.0870892
0.0777231
0.063505
0.0456305
0.0261669
0.00739598
-0.00873245
-0.0211534
-0.0296395
-0.0346374
-0.0371446
-0.0380128
-0.0381421
-0.0380469
-0.0378945
-0.0375862
-0.03694
-0.0357707
-0.0340462
-0.0320087
-0.0299783
-0.0282388
-0.0269551
-0.0262107
-0.0259918
-0.0263733
-0.0278359
-0.0313832
-0.0384068
-0.0505247
-0.0691315
-0.0947199
-0.126232
-0.160589
-0.192907
-0.217076
-0.226888
-0.217484
-0.185726
-0.129895
-0.0483792
0.0612767
0.201801
0.373586
0.570803
0.777589
0.96718
1.10564
1.16073
1.11237
0.961321
0.731223
0.463113
0.203963
-0.00681001
-0.147156
-0.215676
-0.227738
-0.207003
-0.176216
-0.150737
-0.136802
-0.133509
-0.136609
-0.141689
-0.145919
-0.148353
-0.149251
-0.149167
-0.148362
-0.14692
-0.144809
-0.142078
-0.138921
-0.135712
-0.132695
-0.13013
-0.128167
-0.126842
-0.126154
-0.125947
-0.126146
-0.126559
-0.126995
-0.12721
-0.126949
-0.125986
-0.124259
-0.12192
-0.119209
-0.116481
-0.114072
-0.11216
-0.110755
-0.109639
-0.108516
-0.107099
-0.105108
-0.102644
-0.0999228
-0.0972971
-0.0950838
-0.0934912
-0.0924844
-0.0917102
-0.0909232
-0.0899521
-0.0887763
-0.0876807
-0.0869813
-0.0869586
-0.0876176
-0.0887133
-0.0898159
-0.0905449
-0.0907016
-0.0903576
-0.0897778
-0.0894057
-0.0894451
-0.0900826
-0.0912934
-0.0929328
-0.0949375
-0.0971862
-0.0996385
-0.102185
-0.104686
-0.106938
-0.108722
-0.110055
-0.110916
-0.11142
-0.111748
-0.111944
-0.112105
-0.112136
-0.111813
-0.110863
-0.108884
-0.105443
-0.100167
-0.0928614
-0.0835251
-0.072391
-0.0601465
-0.0475081
-0.0352432
-0.0239441
-0.0138749
-0.00487989
0.00348491
0.0118469
0.0206916
0.030244
0.0404002
0.0507118
0.0606403
0.0697003
0.0776106
0.084421
0.0903877
0.0958606
0.101028
0.105951
0.11049
0.114408
0.117494
0.119693
0.120982
0.121503
0.121462
0.120997
0.120171
0.118981
0.117407
0.115334
0.112671
0.109377
0.10558
0.101585
0.0977441
0.0945085
0.0921669
0.0907973
0.0904367
0.0908937
0.0918646
0.0929919
0.0939156
0.0943431
0.0940419
0.0929695
0.0912348
0.0890403
0.086673
0.0842821
0.0819373
0.0795038
0.076793
0.0736085
0.0697354
0.0651658
0.0600356
0.0546923
0.0496216
0.0453321
0.042195
0.0402597
0.0392789
0.038761
0.0381467
0.0369349
0.0349925
0.0324313
0.029638
0.0270641
0.0250987
0.0239923
0.0236901
0.0239777
0.0244768
0.0248325
0.0246798
0.0237991
0.0220812
0.019578
0.0165334
0.0131401
0.00967734
0.00633923
0.0032441
0.000458967
-0.0019556
-0.00399272
-0.00570544
-0.0071841
-0.00859081
-0.0100599
-0.0116266
-0.0132119
-0.0146075
-0.0155125
-0.0156907
-0.0151201
-0.0139286
-0.0124042
-0.0108641
-0.00956469
-0.00864848
-0.00813086
-0.0079261
-0.00798498
-0.00824313
-0.00860262
-0.0090326
-0.00943832
-0.0097068
-0.00973655
-0.0093236
-0.00824096
-0.00618706
-0.00281356
0.00219535
0.00897522
0.0173431
0.026843
0.0367374
0.0462695
0.0549009
0.0624509
0.0691702
0.0754834
0.0818816
0.0885153
0.0951813
0.101278
0.106
0.10862
0.108707
0.106162
0.101355
0.0947759
0.0871017
0.0790781
0.0715074
0.0653961
0.0617064
0.0611461
0.0636466
0.0682506
0.0730502
0.0757853
0.0744997
0.0681819
0.0571054
0.0427064
0.0269721
0.0119069
-0.00109874
-0.0112834
-0.0185384
-0.023136
-0.0255629
-0.0263964
-0.0264077
-0.0263299
-0.026883
-0.0285527
-0.0315474
-0.0356495
-0.0403761
-0.0450591
-0.0491251
-0.0521016
-0.0538083
-0.0544247
-0.0542099
-0.0536692
-0.0531473
-0.0528037
-0.0526056
-0.052408
-0.0520172
-0.0516351
-0.0520842
-0.0550313
-0.0625582
-0.076751
-0.0988723
-0.128553
-0.162761
-0.195312
-0.217189
-0.217187
-0.183093
-0.103714
0.028396
0.213566
0.442034
0.691716
0.929377
1.11569
1.21379
1.19991
1.07149
0.849881
0.575847
0.298555
0.0620528
-0.105851
-0.198451
-0.227675
-0.216387
-0.188761
-0.163011
-0.14803
-0.1446
-0.149024
-0.156452
-0.16326
-0.167797
-0.169977
-0.170435
-0.169912
-0.168988
-0.16798
-0.167041
-0.166221
-0.16524
-0.163837
-0.161728
-0.158858
-0.155331
-0.151431
-0.147557
-0.143956
-0.140802
-0.138163
-0.136012
-0.134387
-0.133278
-0.132717
-0.132625
-0.132755
-0.132868
-0.132583
-0.131695
-0.130209
-0.128217
-0.125883
-0.123402
-0.120897
-0.118425
-0.115954
-0.113518
-0.111125
-0.108863
-0.106775
-0.104927
-0.103427
-0.102274
-0.101493
-0.101126
-0.101118
-0.101475
-0.10207
-0.102809
-0.103569
-0.104145
-0.104478
-0.104475
-0.104216
-0.103816
-0.103354
-0.102975
-0.102745
-0.10269
-0.102899
-0.103383
-0.104149
-0.105112
-0.106119
-0.106964
-0.10741
-0.107348
-0.106813
-0.10609
-0.105593
-0.105685
-0.106557
-0.10809
-0.109876
-0.111235
-0.111358
-0.109649
-0.105635
-0.0990799
-0.0899946
-0.0786794
-0.0656973
-0.0518238
-0.0380886
-0.0254801
-0.0147187
-0.0060884
0.000686027
0.00630873
0.0116204
0.017425
0.0240896
0.0315711
0.0394833
0.0473235
0.0547367
0.0616466
0.0681487
0.0746375
0.0813987
0.0885089
0.0956859
0.102471
0.10831
0.112681
0.115289
0.116097
0.115432
0.113644
0.11124
0.108673
0.10632
0.104324
0.102733
0.101429
0.100267
0.0990681
0.097686
0.0959891
0.0939418
0.0916047
0.0890424
0.0863753
0.0838497
0.0815917
0.0796702
0.0780089
0.0764659
0.0747548
0.0726843
0.0701432
0.0670964
0.0637027
0.0600296
0.0562476
0.0524703
0.0487569
0.0450653
0.0415258
0.0381004
0.0347629
0.031416
0.0280191
0.0245542
0.0212375
0.0183393
0.0161107
0.0147153
0.014021
0.0136684
0.0131782
0.012075
0.0102069
0.00774127
0.00526212
0.00334789
0.00243499
0.00256716
0.00334086
0.00408282
0.00406297
0.00283
0.000287926
-0.00315268
-0.00702408
-0.0107252
-0.0139923
-0.0166941
-0.0190074
-0.0209235
-0.0225323
-0.0237987
-0.0246694
-0.0252487
-0.0256652
-0.0261444
-0.0269297
-0.0280813
-0.0295278
-0.0310334
-0.0322666
-0.0328338
-0.0325093
-0.0311656
-0.0289646
-0.0262373
-0.0233223
-0.020607
-0.0183242
-0.0166203
-0.0154377
-0.0147968
-0.0145556
-0.0146435
-0.0148848
-0.0151007
-0.0150489
-0.0145759
-0.0136851
-0.0125883
-0.0116217
-0.0110726
-0.0109456
-0.010957
-0.0104288
-0.00847832
-0.00425493
0.00262197
0.0120331
0.0231604
0.0348493
0.0458511
0.0551718
0.0623958
0.0677255
0.0718425
0.0756501
0.079929
0.0850587
0.0909235
0.0969826
0.102421
0.106467
0.108564
0.108465
0.10632
0.102449
0.0973298
0.091355
0.0849386
0.0784806
0.0725264
0.0677269
0.0649221
0.0648442
0.0677468
0.073016
0.0791897
0.0841748
0.085745
0.0823262
0.0733721
0.0595595
0.0424802
0.0241557
0.00642844
-0.00930768
-0.0222832
-0.0322794
-0.039423
-0.0440817
-0.0467812
-0.0481183
-0.0487445
-0.049158
-0.0496625
-0.0504267
-0.0514928
-0.0528099
-0.0543315
-0.055996
-0.0575837
-0.0588506
-0.0594382
-0.0590737
-0.0576435
-0.0554761
-0.0533196
-0.0524722
-0.0543928
-0.0603637
-0.0708885
-0.085423
-0.102507
-0.12015
-0.136873
-0.152296
-0.167397
-0.183878
-0.202855
-0.223319
-0.241018
-0.248379
-0.235254
-0.190461
-0.103738
0.031387
0.214532
0.435656
0.67348
0.89635
1.06726
1.1521
1.12952
0.998721
0.781556
0.517783
0.254249
0.0321013
-0.123322
-0.206863
-0.230695
-0.216794
-0.188028
-0.161385
-0.145107
-0.139846
-0.141978
-0.146857
-0.150944
-0.152517
-0.151542
-0.148741
-0.145182
-0.141605
-0.138732
-0.136782
-0.1358
-0.135485
-0.13545
-0.135356
-0.13503
-0.134471
-0.133738
-0.132779
-0.131508
-0.129751
-0.127335
-0.124259
-0.120749
-0.117146
-0.113838
-0.111141
-0.109204
-0.108102
-0.107741
-0.107951
-0.108418
-0.108849
-0.108731
-0.107713
-0.105528
-0.102248
-0.098223
-0.0939785
-0.0900595
-0.08695
-0.0848443
-0.0837365
-0.0833722
-0.0835602
-0.0840721
-0.0847665
-0.0856293
-0.0866053
-0.0876692
-0.088732
-0.0897495
-0.0907247
-0.0916429
-0.092513
-0.0933091
-0.0940054
-0.094525
-0.0946768
-0.0944341
-0.0937973
-0.0928487
-0.0918341
-0.0909978
-0.0906064
-0.0908323
-0.0916327
-0.0928552
-0.094227
-0.0956176
-0.0969971
-0.0986003
-0.100676
-0.103393
-0.106694
-0.110155
-0.113117
-0.114722
-0.114083
-0.110639
-0.104115
-0.0946195
-0.0827556
-0.0694587
-0.0558915
-0.0430948
-0.0319033
-0.0227529
-0.0156003
-0.00993435
-0.00512407
-0.000450343
0.00456809
0.0100695
0.0158332
0.0214659
0.0265197
0.0308289
0.034489
0.0380302
0.0420114
0.046817
0.0525264
0.0586715
0.0644121
0.0689291
0.0716547
0.0725
0.0719186
0.0706694
0.0695441
0.0689872
0.0691141
0.069607
0.070076
0.0700264
0.0692633
0.0678139
0.0658505
0.0637245
0.0616855
0.059907
0.0583467
0.0568295
0.0550522
0.0527368
0.0497071
0.0460224
0.041907
0.0379279
0.0346447
0.032486
0.0317537
0.0323196
0.0336693
0.0351289
0.0359325
0.0354998
0.0335207
0.0300583
0.0254812
0.0204114
0.0154523
0.0111321
0.00792236
0.0059449
0.00523946
0.00548651
0.00630352
0.00720345
0.0077748
0.00758992
0.00627602
0.00357151
-0.000578418
-0.00619734
-0.0128757
-0.0200331
-0.0269186
-0.0328482
-0.0373352
-0.0403178
-0.0419928
-0.0426893
-0.0427181
-0.0421744
-0.0410724
-0.039508
-0.0376617
-0.0358707
-0.034574
-0.0339602
-0.0340302
-0.0345099
-0.0349558
-0.0349875
-0.0344552
-0.0334551
-0.0322473
-0.0311031
-0.0303196
-0.0300885
-0.0306639
-0.0322446
-0.0349663
-0.0387818
-0.0431617
-0.0472334
-0.0499173
-0.0504032
-0.0483512
-0.0441686
-0.0389929
-0.0341256
-0.030642
-0.0290708
-0.0291537
-0.0302173
-0.0314311
-0.0321267
-0.0320998
-0.0314108
-0.0301874
-0.0284232
-0.0258219
-0.0218628
-0.0161617
-0.00862157
0.000333032
0.00982424
0.0187603
0.02622
0.0317388
0.0355428
0.0383306
0.0411924
0.045113
0.0507031
0.058032
0.0666002
0.0754173
0.0833885
0.0894505
0.0929211
0.0934309
0.0910552
0.0862627
0.0797549
0.0724321
0.0652347
0.0589829
0.0543589
0.0518517
0.0517248
0.0538013
0.0574085
0.0613668
0.0641634
0.0642664
0.0605556
0.0526572
0.0410338
0.0268406
0.0115425
-0.00345669
-0.0172021
-0.0291211
-0.0389956
-0.0467291
-0.0523395
-0.0558369
-0.0574326
-0.0574569
-0.0563794
-0.0548757
-0.0535786
-0.0529574
-0.0534412
-0.0548552
-0.0569179
-0.0591119
-0.0610213
-0.0625062
-0.0636387
-0.0646557
-0.0657681
-0.0669194
-0.0678195
-0.0681671
-0.0681872
-0.0690124
-0.0727123
-0.0819023
-0.0988218
-0.124461
-0.157251
-0.19254
-0.222599
-0.237492
-0.226135
-0.177723
-0.0840993
0.0579316
0.243961
0.459598
0.680233
0.873345
1.00463
1.04646
0.98607
0.830599
0.606721
0.353948
0.114384
-0.0782463
-0.205814
-0.267609
-0.276648
-0.252927
-0.216233
-0.180982
-0.154799
-0.139433
-0.133225
-0.133186
-0.136509
-0.141204
-0.14594
-0.149761
-0.151822
-0.151708
-0.149367
-0.145248
-0.140172
-0.135195
-0.131339
-0.129119
-0.128577
-0.1291
-0.129887
-0.130066
-0.129103
-0.126926
-0.124028
-0.120912
-0.11801
-0.115407
-0.112856
-0.110103
-0.106965
-0.103684
-0.100782
-0.0988671
-0.0982408
-0.0988327
-0.100257
-0.101762
-0.102696
-0.10265
-0.101604
-0.0999172
-0.0980318
-0.0964726
-0.0956228
-0.0956181
-0.096229
-0.0970493
-0.0976116
-0.0975693
-0.096724
-0.0952456
-0.0934158
-0.0916851
-0.0903358
-0.089498
-0.0892354
-0.0894333
-0.0899737
-0.090685
-0.0914707
-0.092157
-0.0923923
-0.091932
-0.0906024
-0.0884712
-0.0857966
-0.0831739
-0.0812788
-0.0809652
-0.0828407
-0.087238
-0.0940238
-0.102526
-0.111776
-0.120611
-0.127977
-0.133181
-0.135893
-0.136024
-0.133678
-0.128941
-0.121754
-0.112171
-0.100537
-0.0876928
-0.0748192
-0.0632147
-0.0540998
-0.0479462
-0.044396
-0.0422469
-0.0398851
-0.0355874
-0.0282642
-0.0175398
-0.0040252
0.0110858
0.0262948
0.040274
0.0522448
0.062096
0.0701582
0.0770846
0.083289
0.0888725
0.093571
0.0970536
0.0990083
0.0996685
0.0996843
0.0999871
0.101426
0.104416
0.108825
0.114043
0.119177
0.123348
0.125985
0.126748
0.125603
0.122685
0.118185
0.112275
0.105263
0.0976414
0.0901596
0.0836883
0.0790939
0.0768229
0.0769009
0.0788221
0.0817112
0.0845765
0.0866262
0.0872222
0.0860461
0.0830501
0.0783969
0.0725277
0.066154
0.0601717
0.0554317
0.0525209
0.0514584
0.0517171
0.0524085
0.0526211
0.0517324
0.0497117
0.0470114
0.0443765
0.0425681
0.0419734
0.04242
0.0433183
0.0438042
0.0431639
0.041136
0.0378593
0.0338771
0.0298274
0.0262519
0.0235531
0.0218252
0.0210791
0.0211181
0.0215464
0.021885
0.021472
0.0197906
0.0166434
0.012381
0.00777692
0.00395176
0.00188461
0.00199774
0.0040705
0.00722488
0.0102911
0.0123449
0.012957
0.0123386
0.011109
0.00993901
0.00919781
0.00867788
0.00776652
0.00579548
0.00238467
-0.0021872
-0.0072915
-0.0118805
-0.0149944
-0.0160848
-0.0150017
-0.0119602
-0.00729364
-0.00138556
0.00557147
0.0135122
0.0221852
0.0313936
0.0406749
0.0494262
0.0571778
0.063499
0.0682345
0.0714702
0.073561
0.0748877
0.0758879
0.0768819
0.0780497
0.0793666
0.0805551
0.0811726
0.0808972
0.0793051
0.0761687
0.0715445
0.0658305
0.0597145
0.0542116
0.0504041
0.0492606
0.0510916
0.0555252
0.0610877
0.0657838
0.0674276
0.0642784
0.0557043
0.0421967
0.0254251
0.00752353
-0.00930193
-0.023437
-0.0340784
-0.0412552
-0.045571
-0.0478718
-0.0489788
-0.0495741
-0.0499525
-0.0500745
-0.0497811
-0.0488133
-0.0470737
-0.0447099
-0.0420527
-0.0396293
-0.0378396
-0.0368511
-0.0363865
-0.0360891
-0.0355996
-0.0348017
-0.0340893
-0.0343338
-0.0370701
-0.0439557
-0.056624
-0.0762671
-0.103087
-0.135785
-0.170854
-0.202322
-0.221826
-0.219282
-0.183997
-0.106349
0.0196819
0.193626
0.405844
0.635909
0.853498
1.02292
1.11086
1.09573
0.975039
0.768133
0.512319
0.252864
0.0308692
-0.127142
-0.21397
-0.240087
-0.226588
-0.19639
-0.167188
-0.148037
-0.140276
-0.140559
-0.144252
-0.147756
-0.149249
-0.148469
-0.14596
-0.142522
-0.138798
-0.135365
-0.132559
-0.130506
-0.12915
-0.128334
-0.127745
-0.127119
-0.126454
-0.125783
-0.125152
-0.12459
-0.124021
-0.123338
-0.122442
-0.121394
-0.120326
-0.119478
-0.118988
-0.118892
-0.118996
-0.118946
-0.118328
-0.116932
-0.114837
-0.112255
-0.109599
-0.107124
-0.104978
-0.103169
-0.101562
-0.100007
-0.0985794
-0.0975322
-0.097141
-0.0975849
-0.0988859
-0.100775
-0.10278
-0.104411
-0.105346
-0.105462
-0.104938
-0.103997
-0.102981
-0.102076
-0.101337
-0.100776
-0.100307
-0.0999636
-0.0997321
-0.0997762
-0.100165
-0.100957
-0.102146
-0.103661
-0.10548
-0.107677
-0.110342
-0.113685
-0.117822
-0.122684
-0.127995
-0.133307
-0.138165
-0.142232
-0.145384
-0.147612
-0.148735
-0.148488
-0.146205
-0.141029
-0.132399
-0.119901
-0.103841
-0.0851201
-0.0651264
-0.045356
-0.0271878
-0.0115112
0.00148874
0.0121639
0.021407
0.03012
0.0390175
0.0484359
0.0582583
0.0679832
0.0770254
0.0849123
0.0913611
0.0963606
0.100042
0.102572
0.104062
0.104628
0.104488
0.103844
0.103104
0.102509
0.102229
0.102295
0.102551
0.10277
0.102842
0.102704
0.102399
0.10198
0.101327
0.100313
0.0986574
0.0961829
0.09282
0.0887892
0.0844338
0.0801736
0.0763602
0.073191
0.0706965
0.0687385
0.06703
0.0653883
0.0635709
0.061563
0.0593607
0.0570907
0.0548691
0.0528815
0.0512419
0.0499809
0.0490452
0.048344
0.0476348
0.0467848
0.0457184
0.044326
0.0425844
0.0403552
0.0375642
0.0341552
0.0301587
0.0257988
0.0215197
0.0177284
0.0147756
0.0127912
0.0117758
0.0115155
0.011817
0.0124333
0.0133461
0.0144641
0.0157718
0.0170467
0.0180765
0.0186544
0.018668
0.0181541
0.0172941
0.0163047
0.0152377
0.0139358
0.0120746
0.00941938
0.00582115
0.00143233
-0.00321923
-0.00752727
-0.0110202
-0.0134269
-0.0148129
-0.0154802
-0.01582
-0.0162124
-0.0167192
-0.0172727
-0.0177381
-0.0179466
-0.0179065
-0.0175878
-0.0170968
-0.0163835
-0.0153892
-0.0140237
-0.0122415
-0.0101609
-0.00799077
-0.00582318
-0.00346859
-0.000511077
0.00365971
0.00958058
0.0173326
0.0265274
0.0363059
0.045744
0.0541332
0.0612143
0.0671067
0.0722739
0.0769522
0.0810984
0.0842884
0.0859857
0.0858144
0.0837528
0.0802862
0.0761753
0.0723013
0.0693557
0.0677958
0.0678072
0.069419
0.0724507
0.0763209
0.0799819
0.0820167
0.0808292
0.075285
0.0648394
0.0501467
0.0326834
0.0143409
-0.00292312
-0.0177085
-0.0294017
-0.0379565
-0.0437245
-0.0471983
-0.0488928
-0.0492306
-0.0486215
-0.0475458
-0.0463896
-0.0455081
-0.0450679
-0.0451292
-0.0455782
-0.0462752
-0.0470836
-0.0478824
-0.0486483
-0.0493263
-0.0498135
-0.0501168
-0.050081
-0.0498566
-0.0496372
-0.0498585
-0.0515744
-0.0562698
-0.0657844
-0.0818841
-0.105609
-0.1365
-0.171509
-0.204424
-0.226027
-0.22469
-0.187696
-0.10331
0.0357826
0.22891
0.463983
0.716056
0.949111
1.1222
1.19951
1.16092
1.00955
0.77274
0.495202
0.226773
0.00849575
-0.137243
-0.209526
-0.224532
-0.206472
-0.178396
-0.155701
-0.144388
-0.143405
-0.148503
-0.155415
-0.161316
-0.165107
-0.166964
-0.167383
-0.166866
-0.165726
-0.164185
-0.162369
-0.160227
-0.157675
-0.154638
-0.151225
-0.147772
-0.144778
-0.142688
-0.141799
-0.142002
-0.14294
-0.144072
-0.144915
-0.145136
-0.144657
-0.143658
-0.142392
-0.141134
-0.139982
-0.138893
-0.137715
-0.13618
-0.134156
-0.131579
-0.128481
-0.125043
-0.121481
-0.118125
-0.115151
-0.112679
-0.110706
-0.10916
-0.1079
-0.106915
-0.10618
-0.105889
-0.106203
-0.107306
-0.109189
-0.11161
-0.114154
-0.116218
-0.117225
-0.116817
-0.115027
-0.112266
-0.109164
-0.106478
-0.104778
-0.104261
-0.104873
-0.106265
-0.108016
-0.109632
-0.110862
-0.111614
-0.11182
-0.111535
-0.110891
-0.110024
-0.109217
-0.108763
-0.109009
-0.110092
-0.11202
-0.114436
-0.116682
-0.117796
-0.116812
-0.112819
-0.105289
-0.094141
-0.0798822
-0.0634925
-0.0463193
-0.0297315
-0.0147866
-0.0020148
0.00863656
0.017715
0.0260002
0.0342873
0.0429428
0.052076
0.061452
0.0706253
0.0790658
0.0862976
0.0919562
0.0957424
0.0976159
0.0977332
0.0964994
0.0944409
0.0922141
0.0902242
0.0887257
0.0877094
0.0869026
0.086029
0.0849675
0.0835965
0.0819883
0.0801897
0.0782718
0.0762582
0.0742642
0.0724172
0.0710103
0.0702154
0.070114
0.0704872
0.070983
0.0711875
0.0706659
0.0692124
0.0667152
0.0633294
0.0592818
0.0549282
0.0505937
0.0466102
0.0432463
0.0404969
0.0383016
0.0364228
0.034585
0.0326737
0.0306388
0.0286875
0.0271023
0.0262283
0.0262053
0.0269674
0.0281337
0.0291739
0.0295084
0.0287804
0.0268704
0.0238365
0.0200599
0.0158635
0.0116405
0.0075302
0.00365242
5.39946e-5
-0.00319946
-0.00600731
-0.00828476
-0.00996812
-0.010989
-0.0113626
-0.0111499
-0.010559
-0.00979692
-0.00918019
-0.00890212
-0.00910435
-0.00980015
-0.0107722
-0.0117371
-0.0124259
-0.0127271
-0.0127418
-0.0127179
-0.0128884
-0.0134605
-0.0143974
-0.0154798
-0.016411
-0.016895
-0.0167587
-0.0159645
-0.0145506
-0.0126825
-0.0103881
-0.00778303
-0.00494928
-0.00212985
0.000472745
0.00253497
0.00373701
0.00379996
0.00273004
0.000868676
-0.00108773
-0.00219322
-0.00136758
0.00214034
0.00859532
0.0175682
0.0280357
0.0386495
0.0481464
0.0556348
0.0609761
0.0645472
0.0671937
0.0698272
0.0730199
0.0769709
0.0814011
0.085776
0.0894553
0.0919987
0.0931891
0.0930041
0.0916522
0.0894065
0.0865231
0.0832651
0.0798279
0.0765377
0.073703
0.0718671
0.0715288
0.0729593
0.0758022
0.0790251
0.0809895
0.0799268
0.07434
0.0638176
0.0489993
0.0313711
0.0129973
-0.0042265
-0.0189586
-0.0305658
-0.0389406
-0.0444069
-0.0474602
-0.0486918
-0.0487024
-0.0480985
-0.0474351
-0.0469867
-0.0468736
-0.0470787
-0.0474066
-0.0477695
-0.0481199
-0.0484874
-0.048838
-0.0491327
-0.0493352
-0.0496346
-0.050316
-0.0522446
-0.0566942
-0.0651796
-0.0792354
-0.0998966
-0.127202
-0.159747
-0.19406
-0.224094
-0.24172
-0.237294
-0.200952
-0.123942
-0.00062316
0.169505
0.380019
0.616478
0.856473
1.0719
1.23306
1.31436
1.3003
1.18958
0.996356
0.74756
0.476914
0.21796
-0.00232155
-0.167622
-0.27322
-0.324409
-0.333051
-0.313729
-0.28041
-0.244507
-0.213699
-0.191813
-0.179491
-0.175208
-0.176272
-0.17995
-0.183946
-0.186843
-0.187999
-0.187377
-0.185238
-0.181917
-0.17788
-0.173469
-0.169014
-0.164825
-0.161107
-0.158004
-0.155623
-0.153989
-0.152983
-0.152423
-0.152116
-0.151709
-0.150994
-0.149811
-0.148123
-0.146051
-0.143701
-0.141174
-0.138558
-0.135814
-0.132971
-0.130005
-0.126991
-0.123988
-0.121094
-0.118407
-0.116045
-0.114146
-0.112891
-0.112401
-0.112738
-0.113838
-0.115536
-0.117452
-0.119374
-0.12111
-0.122631
-0.123995
-0.125205
-0.1262
-0.126668
-0.126245
-0.124646
-0.121806
-0.117972
-0.11366
-0.1095
-0.106113
-0.103917
-0.103067
-0.103476
-0.104921
-0.107111
-0.10972
-0.112585
-0.115614
-0.118913
-0.12258
-0.12671
-0.131366
-0.13633
-0.141145
-0.145171
-0.147567
-0.147447
-0.143964
-0.136602
-0.125221
-0.110158
-0.0922286
-0.0725534
-0.0524743
-0.0332019
-0.0157811
-0.00078161
0.0115678
0.0213581
0.0289787
0.0350028
0.0399111
0.0442318
0.048337
0.0525275
0.0568731
0.0614181
0.0661128
0.0708429
0.0754133
0.079706
0.0834986
0.0866181
0.0889474
0.0904131
0.0910919
0.0911858
0.0908884
0.0903693
0.0897102
0.088883
0.0878993
0.0868584
0.0859642
0.085574
0.0858951
0.0869524
0.0884862
0.089996
0.0907875
0.0902297
0.0879904
0.0840759
0.0788726
0.0730709
0.0674115
0.0624501
0.0584609
0.0553311
0.052632
0.049911
0.0467979
0.0432588
0.0396149
0.0362927
0.0336948
0.032007
0.0310942
0.0306097
0.0301638
0.0293904
0.0281625
0.0265433
0.0247106
0.0227885
0.0208062
0.018637
0.0161363
0.0131891
0.00983391
0.00618803
0.00247203
-0.00108681
-0.00428029
-0.00702681
-0.00927076
-0.011033
-0.012321
-0.013189
-0.0137476
-0.0140914
-0.014427
-0.014911
-0.0156154
-0.0165908
-0.0177101
-0.0187976
-0.0196194
-0.019998
-0.0198605
-0.019215
-0.0181679
-0.016829
-0.0153928
-0.0140517
-0.0130494
-0.0127296
-0.0133362
-0.0150315
-0.0178454
-0.0213814
-0.0251023
-0.0283449
-0.0305334
-0.0314452
-0.0312093
-0.0303889
-0.0296557
-0.0296248
-0.0304541
-0.0317535
-0.032815
-0.0328547
-0.0313526
-0.0284358
-0.024615
-0.020693
-0.0172673
-0.0145898
-0.0122672
-0.00952029
-0.00555103
0.000242417
0.00781443
0.0166329
0.0258635
0.034623
0.0423476
0.048872
0.0544279
0.0594771
0.0644072
0.0692454
0.0736166
0.0768721
0.0782439
0.0772413
0.0738048
0.0684166
0.0620005
0.0557721
0.0508712
0.0482777
0.0484256
0.0511741
0.055668
0.0603165
0.0632281
0.0624927
0.0568184
0.0458225
0.0302816
0.0118576
-0.00735985
-0.0253814
-0.0408046
-0.0528883
-0.0614752
-0.0667282
-0.069044
-0.069039
-0.0675233
-0.0655738
-0.0642516
-0.0643149
-0.0661544
-0.0694864
-0.0734761
-0.0771617
-0.0796548
-0.0804101
-0.0793844
-0.0767843
