-0.00714418
-0.00895865
-0.0105245
-0.0116401
-0.0121718
-0.0121706
-0.0118027
-0.0113222
-0.0110192
-0.0110616
-0.0115384
-0.0123935
-0.0134608
-0.0145683
-0.0156251
-0.0165905
-0.0174559
-0.0183057
-0.0191668
-0.0200241
-0.0207803
-0.0212421
-0.0212868
-0.0207774
-0.0197629
-0.0183188
-0.0166941
-0.0150931
-0.0135138
-0.0118525
-0.00972858
-0.00655123
-0.00189631
0.00449107
0.0124507
0.0213325
0.0303183
0.0386426
0.0457277
0.0515535
0.0565823
0.0614841
0.066832
0.0728785
0.0793723
0.0855364
0.0904814
0.0933048
0.0936145
0.0915016
0.0875391
0.0825697
0.0775028
0.0731765
0.0701673
0.0690112
0.0699801
0.0730097
0.0774437
0.0819567
0.0847768
0.0840952
0.0784815
0.0674402
0.0516596
0.0328424
0.0132191
-0.00491825
-0.0198228
-0.0305674
-0.0370247
-0.0396942
-0.0396103
-0.037882
-0.0357299
-0.0340646
-0.0334899
-0.0340827
-0.0356435
-0.0377399
-0.0398518
-0.0416224
-0.0429312
-0.0439639
-0.0449907
-0.046227
-0.0478236
-0.0495962
-0.0512355
-0.0524533
-0.0530492
-0.0531538
-0.0533152
-0.054846
-0.0595711
-0.0694516
-0.0862169
-0.11071
-0.141974
-0.176599
-0.208247
-0.227946
-0.224738
-0.187178
-0.104999
0.0280379
0.211138
0.433596
0.673346
0.898198
1.07076
1.15684
1.1352
1.00487
0.78757
0.522891
0.257653
0.0332028
-0.124944
-0.211287
-0.237744
-0.226166
-0.199327
-0.173921
-0.157936
-0.151935
-0.15251
-0.15564
-0.158643
-0.160541
-0.16153
-0.162041
-0.162196
-0.161774
-0.160508
-0.158389
-0.155742
-0.153075
-0.150974
-0.149745
-0.149482
-0.15001
-0.15095
-0.151928
-0.152621
-0.152774
-0.152348
-0.151299
-0.14963
-0.147393
-0.14464
-0.141543
-0.138217
-0.134865
-0.131636
-0.128653
-0.126002
-0.123689
-0.121732
-0.120062
-0.118528
-0.117037
-0.115357
-0.113419
-0.111152
-0.108683
-0.106166
-0.103874
-0.102131
-0.101207
-0.10131
-0.102487
-0.104609
-0.107333
-0.110223
-0.112813
-0.114817
-0.116001
-0.116377
-0.115915
-0.114651
-0.112586
-0.109828
-0.106628
-0.103367
-0.100483
-0.0984012
-0.0972169
-0.0969102
-0.0972809
-0.0981555
-0.0993286
-0.100838
-0.10279
-0.105332
-0.108457
-0.112148
-0.116227
-0.120285
-0.123857
-0.126276
-0.126959
-0.125362
-0.121044
-0.113834
-0.103841
-0.0914986
-0.0775882
-0.0630969
-0.0492056
-0.0369099
-0.0268486
-0.019144
-0.0134644
-0.00908926
-0.00515058
-0.000788521
0.00449829
0.0109389
0.0185866
0.027252
0.0365661
0.0461953
0.0557027
0.0647104
0.0728628
0.0798072
0.085441
0.0898265
0.0930898
0.095508
0.0972374
0.0984816
0.0993457
0.0998471
0.100055
0.100157
0.100232
0.100451
0.10089
0.101474
0.102015
0.10216
0.101682
0.100486
0.0986408
0.0962974
0.0937417
0.091067
0.0883124
0.0853336
0.0820183
0.0784008
0.0747326
0.0713363
0.068506
0.0663481
0.0647441
0.0632988
0.0615785
0.0592883
0.0564404
0.053265
0.0502729
0.0479906
0.0467289
0.0465372
0.0470976
0.0479268
0.048404
0.0480736
0.0466581
0.0442368
0.0410255
0.037423
0.033728
0.0301742
0.0268712
0.0237854
0.0207532
0.0176567
0.0143783
0.010879
0.00724819
0.00359224
3.21388e-6
-0.00347189
-0.00679244
-0.00995594
-0.0128862
-0.0155059
-0.0176124
-0.0190839
-0.0198879
-0.0201525
-0.0200705
-0.0198724
-0.0197506
-0.01974
-0.0197856
-0.0197426
-0.0195354
-0.0192186
-0.0190051
-0.0190661
-0.0195591
-0.0204444
-0.0214427
-0.022189
-0.0223424
-0.0217798
-0.0205758
-0.0190868
-0.0178238
-0.0171923
-0.0175085
-0.0187621
-0.0207651
-0.0231785
-0.0256226
-0.0277725
-0.0294173
-0.0304677
-0.0308735
-0.0305339
-0.029285
-0.0269592
-0.0233182
-0.0182172
-0.011607
-0.00363053
0.00540711
0.0149955
0.0245948
0.0336662
0.0418268
0.0490484
0.0555189
0.0617124
0.0680651
0.0747393
0.0815255
0.0877944
0.0926606
0.09525
0.0950896
0.0921257
0.086905
0.0804098
0.0738502
0.068439
0.065186
0.0647725
0.0673409
0.0723995
0.0787675
0.0845679
0.0877974
0.0866892
0.0802312
0.0685291
0.0527372
0.0346902
0.0163718
-0.000625069
-0.0153296
-0.0274032
-0.0369627
-0.0442966
-0.049645
-0.0532416
-0.0554496
-0.0565156
-0.0568654
-0.0568133
-0.0565866
-0.0562595
-0.0557673
-0.0550148
-0.0539562
-0.0526853
-0.0513882
-0.0501374
-0.0489968
-0.0477951
-0.0462759
-0.044254
-0.0417466
-0.0390848
-0.0368048
-0.0358836
-0.0376257
-0.0437485
-0.0559847
-0.0758609
-0.104111
-0.139702
-0.178824
-0.214672
-0.237423
-0.235203
-0.195526
-0.107938
0.0327249
0.22265
0.446379
0.676451
0.876613
1.00934
1.04565
0.974174
0.806244
0.573814
0.320999
0.0916748
-0.0823253
-0.187918
-0.230741
-0.229119
-0.205491
-0.178578
-0.159151
-0.149993
-0.148736
-0.151392
-0.154665
-0.156858
-0.157704
-0.157655
-0.157234
-0.156709
-0.1562
-0.155759
-0.155257
-0.154557
-0.153337
-0.151256
-0.148211
-0.144293
-0.13993
-0.135723
-0.132162
-0.129538
-0.127788
-0.126551
-0.125372
-0.123867
-0.121819
-0.119156
-0.116083
-0.112724
-0.109237
-0.105761
-0.102598
-0.1
-0.0983173
-0.0977345
-0.0982202
-0.0994254
-0.100844
-0.101933
-0.102298
-0.101848
-0.100716
-0.0992729
-0.0978317
-0.0966194
-0.0957136
-0.0949391
-0.0941276
-0.093185
-0.092048
-0.0907937
-0.0895416
-0.0884245
-0.0874214
-0.0864847
-0.0855243
-0.0846236
-0.0838496
-0.0835341
-0.0839113
-0.0851716
-0.0871706
-0.0896338
-0.0921136
-0.0941204
-0.0953493
-0.0957126
-0.0953493
-0.0945957
-0.093843
-0.0934586
-0.093656
-0.0945347
-0.0959392
-0.0975612
-0.0989359
-0.0994788
-0.0986158
-0.0958129
-0.0907617
-0.0833947
-0.0738774
-0.062524
-0.04994
-0.0367269
-0.0234822
-0.0106682
0.00140017
0.0126316
0.0231236
0.0330139
0.0424488
0.0516004
0.0605532
0.0694343
0.0781966
0.0867859
0.0949657
0.102365
0.108532
0.113091
0.115899
0.117072
0.117083
0.116517
0.115864
0.115555
0.115552
0.115622
0.115377
0.114471
0.11275
0.110359
0.107611
0.104787
0.10207
0.0994053
0.0966358
0.0936383
0.0904929
0.0874789
0.085091
0.0837419
0.08354
0.084342
0.0856176
0.086637
0.0867553
0.0856059
0.0830802
0.0794157
0.0751775
0.0708466
0.0669114
0.0635899
0.0608083
0.0583227
0.0557597
0.0527934
0.0491126
0.0447453
0.0398172
0.0346774
0.0296876
0.0253089
0.021799
0.0193124
0.0177945
0.0171071
0.0170523
0.0173763
0.0178838
0.0184352
0.0189133
0.0192497
0.0193339
0.0190592
0.0183201
0.0170874
0.0154735
0.0136306
0.0117542
0.00989483
0.00792091
0.00545723
0.00218351
-0.00208363
-0.00720856
-0.0126122
-0.0174255
-0.0209034
-0.022434
-0.0219912
-0.0199202
-0.016933
-0.0138178
-0.0112018
-0.00953073
-0.00886711
-0.00910058
-0.00997519
-0.0112038
-0.0125097
-0.0136879
-0.0145252
-0.0149201
-0.0148565
-0.0143178
-0.01335
-0.0120326
-0.0102905
-0.00797122
-0.00482464
-0.000589724
0.00486164
0.0114331
0.0187704
0.0264206
0.0340279
0.0415009
0.0489664
0.0567435
0.0649098
0.0732313
0.0809775
0.0871561
0.0907937
0.0914762
0.0894067
0.085409
0.0804787
0.0755145
0.071149
0.0675017
0.0647516
0.0631354
0.0629553
0.064447
0.0672819
0.0705297
0.0726634
0.0721065
0.0676993
0.0591543
0.0470378
0.0325085
0.0170126
0.00172361
-0.0124488
-0.0249232
-0.0353396
-0.0434187
-0.0491448
-0.0527236
-0.0546828
-0.0557059
-0.0563298
-0.0569015
-0.0574908
-0.0578712
-0.0580131
-0.0579348
-0.0578201
-0.0579915
-0.0585439
-0.0593646
-0.060199
-0.0607607
-0.0609057
-0.0608691
-0.0611733
-0.062877
-0.0673897
-0.0763383
-0.0913268
-0.113472
-0.142703
-0.177092
-0.212009
-0.240373
-0.252734
-0.238312
-0.18652
-0.0892804
0.0559797
0.243368
0.456433
0.668262
0.845096
0.953396
0.968794
0.883761
0.711507
0.483339
0.240655
0.0235135
-0.139477
-0.236916
-0.274245
-0.268268
-0.239492
-0.205349
-0.176588
-0.15703
-0.146023
-0.14088
-0.13907
-0.138934
-0.139621
-0.140608
-0.141471
-0.141949
-0.142001
-0.141961
-0.142323
-0.14333
-0.145004
-0.146933
-0.148601
-0.149557
-0.149593
-0.1488
-0.147462
-0.145827
-0.144031
-0.142048
-0.13993
-0.137724
-0.135467
-0.133247
-0.130924
-0.128322
-0.125226
-0.121499
-0.117352
-0.113204
-0.109546
-0.106646
-0.104639
-0.103285
-0.102314
-0.101521
-0.100957
-0.100922
-0.101741
-0.103595
-0.106315
-0.10931
-0.111759
-0.112897
-0.112258
-0.109929
-0.106369
-0.10236
-0.0986607
-0.0957448
-0.0938002
-0.0927379
-0.0923232
-0.0924865
-0.0931245
-0.0941437
-0.0953413
-0.0963955
-0.096866
-0.096533
-0.0953207
-0.0936057
-0.0920342
-0.0913403
-0.0920958
-0.094509
-0.0984624
-0.103477
-0.108985
-0.114382
-0.119224
-0.123211
-0.126128
-0.127846
-0.128245
-0.127127
-0.124294
-0.119526
-0.112708
-0.103859
-0.0933479
-0.0818652
-0.0702888
-0.0596133
-0.0506892
-0.0439224
-0.0392418
-0.0360892
-0.0335344
-0.0304204
-0.0257433
-0.0187993
-0.00929719
0.00248603
0.0159202
0.0300469
0.0439322
0.056849
0.0682409
0.0778918
0.0857209
0.0917651
0.0962543
0.0994536
0.101756
0.103538
0.105149
0.106788
0.108472
0.110092
0.111431
0.112331
0.112667
0.112395
0.11153
0.109966
0.107638
0.104491
0.100466
0.0956411
0.0901863
0.0845225
0.0792201
0.0749853
0.0725175
0.0721624
0.0738294
0.0768639
0.080056
0.0821442
0.0821674
0.0799212
0.0759926
0.0715164
0.0676026
0.0649193
0.0634745
0.0626311
0.0614873
0.0593201
0.0558066
0.0512491
0.0462121
0.0413834
0.0373077
0.0342576
0.0322153
0.0308882
0.0298489
0.0285812
0.0266197
0.023736
0.0200104
0.0158803
0.0120685
0.00933345
0.00831914
0.00919677
0.0115967
0.0146256
0.0171123
0.0179186
0.0164396
0.0127757
0.00777036
0.00277522
-0.000900352
-0.00243166
-0.00174518
0.000446136
0.00308259
0.00509162
0.00574691
0.0049816
0.0031339
0.000695475
-0.00194611
-0.00464824
-0.00753384
-0.0108257
-0.0146306
-0.0187798
-0.0229277
-0.0264816
-0.028882
-0.0297469
-0.0288911
-0.0263553
-0.0223646
-0.017247
-0.0112992
-0.00489165
0.00166691
0.00795975
0.0136433
0.0185545
0.022818
0.0269463
0.0317913
0.0380338
0.0459181
0.0549165
0.0637678
0.0708397
0.0747855
0.0749436
0.0716526
0.0661845
0.0600955
0.0547656
0.0510164
0.0489373
0.0480387
0.0477167
0.0475661
0.0476773
0.0484096
0.0502685
0.0534738
0.0576883
0.0619871
0.0650039
0.0654212
0.0622921
0.0553182
0.0449599
0.0320869
0.0177727
0.0031483
-0.0108782
-0.023638
-0.0345794
-0.0432975
-0.0497287
-0.0539763
-0.0565253
-0.0581147
-0.0595473
-0.0613826
-0.0638702
-0.0668558
-0.0699851
-0.0728354
-0.0750195
-0.0763413
-0.0766324
-0.0757851
-0.0735973
-0.0700501
-0.0653314
-0.059866
-0.0546563
-0.0509569
-0.0505073
-0.0552047
-0.0667179
-0.086219
-0.113673
-0.147188
-0.182357
-0.212339
-0.228117
-0.21953
-0.176307
-0.0899247
0.0440246
0.222981
0.434939
0.657293
0.85846
1.00332
1.06169
1.01739
0.874351
0.657317
0.405944
0.163801
-0.0330879
-0.165017
-0.230627
-0.243501
-0.224595
-0.19407
-0.166033
-0.14689
-0.137126
-0.134084
-0.134724
-0.136805
-0.139233
-0.141663
-0.143859
-0.145474
-0.146252
-0.146051
-0.144989
-0.143245
-0.140978
-0.138327
-0.135442
-0.132422
-0.129466
-0.126813
-0.124639
-0.123018
-0.121813
-0.120801
-0.119614
-0.117972
-0.115706
-0.112843
-0.109534
-0.106063
-0.10265
-0.0995829
-0.0970776
-0.0952307
-0.094053
-0.093417
-0.0931574
-0.0930269
-0.0928695
-0.0925766
-0.0921873
-0.0916939
-0.0909733
-0.0898786
-0.0881721
-0.0856533
-0.0823754
-0.0785321
-0.0745378
-0.0708284
-0.0677653
-0.0654982
-0.0640022
-0.0631197
-0.0626249
-0.0623887
-0.0624089
-0.062733
-0.0634594
-0.0646565
-0.0662898
-0.0683661
-0.0707919
-0.0735952
-0.07684
-0.080568
-0.0848223
-0.0895766
-0.09466
-0.0998111
-0.104798
-0.109411
-0.113555
-0.117291
-0.120813
-0.124239
-0.127627
-0.130769
-0.133157
-0.134025
-0.132562
-0.127982
-0.119858
-0.10824
-0.0936089
-0.0768009
-0.0589684
-0.0411284
-0.0241727
-0.00864902
0.00527233
0.0176899
0.0290125
0.0397526
0.0503976
0.0612599
0.0724545
0.0836799
0.0944401
0.104148
0.112287
0.118584
0.123124
0.126231
0.128403
0.13003
0.131386
0.132605
0.133597
0.134252
0.134449
0.134048
0.133107
0.131617
0.129759
0.127659
0.125428
0.123066
0.120461
0.117562
0.114285
0.110739
0.107089
0.103634
0.100582
0.0981026
0.0961868
0.094709
0.0935661
0.0926337
0.0918577
0.0912645
0.0909202
0.090721
0.090607
0.0904551
0.0900952
0.0893513
0.0880517
0.086105
0.0834173
0.0799236
0.0756615
0.0707829
0.0655781
0.0603629
0.0554837
0.0512641
0.0478659
0.0453644
0.0437233
0.04273
0.0422048
0.0419541
0.0417684
0.0415782
0.0413447
0.0411013
0.0408428
0.0405657
0.0402062
0.0396841
0.038863
0.0377513
0.0363198
0.0346073
0.0326308
0.0304738
0.0280839
0.025495
0.0227147
0.0198367
0.017081
0.0146785
0.0129624
0.0120544
0.0120294
0.0127348
0.0138053
0.0148098
0.0153598
0.0151815
0.0142069
0.0125215
0.0103853
0.0081588
0.00617247
0.00469356
0.00383329
0.00347425
0.00339714
0.00341172
0.00343993
0.00358069
0.00429122
0.00605767
0.00942468
0.0146772
0.0217373
0.0301656
0.0392927
0.0485177
0.0573301
0.0655443
0.0732693
0.0806888
0.0878391
0.0945466
0.100259
0.104378
0.106319
0.105754
0.102856
0.0980213
0.0920138
0.0857387
0.0800897
0.0759471
0.0739322
0.0743901
0.0769416
0.0805253
0.0834083
0.0836504
0.0796486
0.070715
0.057277
0.0407973
0.0233113
0.00691318
-0.00692496
-0.0174997
-0.0247527
-0.0291718
-0.031395
-0.0321676
-0.0322147
-0.0321392
-0.0323928
-0.0330688
-0.0340316
-0.0349999
-0.0356291
-0.0358221
-0.0356701
-0.0355427
-0.0357732
-0.0366368
-0.0380629
-0.0397357
-0.0411412
-0.0418941
-0.0418683
-0.0413794
-0.0411308
-0.042447
-0.0470598
-0.0567858
-0.0732436
-0.0971803
-0.127939
-0.162657
-0.195651
-0.218469
-0.220472
-0.189801
-0.115169
0.0113251
0.190678
0.413697
0.659003
0.893868
1.07908
1.17788
1.16613
1.04086
0.822939
0.552622
0.278588
0.0446475
-0.121451
-0.212711
-0.240674
-0.227681
-0.197624
-0.16863
-0.149824
-0.142394
-0.143049
-0.1475
-0.152424
-0.156202
-0.158615
-0.160076
-0.160995
-0.161609
-0.162028
-0.162343
-0.162556
-0.162665
-0.162626
-0.162431
-0.162118
-0.1617
-0.161168
-0.160342
-0.159029
-0.157051
-0.154334
-0.151012
-0.147344
-0.14364
-0.14017
-0.137078
-0.134356
-0.131807
-0.129232
-0.126475
-0.123444
-0.120201
-0.116855
-0.113647
-0.110815
-0.108481
-0.106728
-0.105501
-0.104765
-0.104498
-0.104688
-0.105385
-0.10646
-0.107783
-0.109019
-0.109932
-0.110246
-0.109855
-0.108752
-0.107091
-0.104954
-0.102446
-0.0996562
-0.0966172
-0.0935157
-0.0906193
-0.0882428
-0.0867044
-0.0862434
-0.0868862
-0.0884706
-0.0906534
-0.0929103
-0.0947341
-0.0956637
-0.0954956
-0.0943431
-0.0926918
-0.0913043
-0.0910316
-0.0925159
-0.0959167
-0.100856
-0.106473
-0.111672
-0.115403
-0.116866
-0.1155
-0.110923
-0.102907
-0.0914068
-0.0765755
-0.0590986
-0.039928
-0.0203622
-0.0017167
0.0151542
0.0299234
0.042831
0.0544616
0.0653459
0.0757815
0.0856464
0.0946447
0.102334
0.10856
0.11337
0.116983
0.119744
0.121855
0.123382
0.12427
0.124414
0.123705
0.12229
0.120306
0.118006
0.11565
0.113469
0.111567
0.109956
0.108607
0.107362
0.106087
0.104644
0.102918
0.100819
0.0983315
0.095479
0.0924263
0.0894208
0.0866682
0.0842904
0.0823448
0.0807561
0.0794575
0.0784783
0.0779751
0.0782617
0.0797205
0.082568
0.0868326
0.092326
0.0984425
0.104508
0.109782
0.113753
0.11624
0.117426
0.117869
0.118292
0.119231
0.12086
0.122686
0.123748
0.122818
0.11889
0.11147
0.100734
0.0874643
0.0727695
0.0577875
0.0434165
0.0301289
0.0180896
0.00721158
-0.00262179
-0.0114823
-0.0194517
-0.026566
-0.0327459
-0.0379042
-0.0419608
-0.0449735
-0.0470706
-0.0486
-0.0500415
-0.05189
-0.0544672
-0.0578879
-0.0618978
-0.0661167
-0.0700608
-0.0733608
-0.0758933
-0.0777546
-0.0791932
-0.0804257
-0.0815063
-0.0821302
-0.0820602
-0.0809681
-0.0788663
-0.0766374
-0.0761767
-0.0800867
-0.0914801
-0.112693
-0.144383
-0.183981
-0.224989
-0.257066
-0.266946
-0.240299
-0.164534
-0.0320452
0.155824
0.386123
0.633205
0.861104
1.02997
1.10568
1.07002
0.927297
0.70462
0.444993
0.195474
-0.00589044
-0.139011
-0.203921
-0.216249
-0.198707
-0.172145
-0.150349
-0.138375
-0.135122
-0.136899
-0.140142
-0.142828
-0.144411
-0.145096
-0.14536
-0.145374
-0.145206
-0.144973
-0.14483
-0.144871
-0.144945
-0.144804
-0.144142
-0.142775
-0.14071
-0.138176
-0.135378
-0.132573
-0.129897
-0.127348
-0.124861
-0.122469
-0.120115
-0.11795
-0.116006
-0.114295
-0.112809
-0.111484
-0.110106
-0.108629
-0.106879
-0.104909
-0.102863
-0.101108
-0.100028
-0.0999558
-0.101038
-0.103179
-0.105985
-0.10893
-0.111458
-0.113142
-0.113725
-0.113236
-0.111823
-0.109804
-0.107474
-0.105091
-0.102919
-0.101025
-0.0994885
-0.0982731
-0.0972843
-0.0964337
-0.095812
-0.0953757
-0.0953529
-0.0958465
-0.0970216
-0.0988163
-0.101098
-0.103512
-0.105666
-0.107177
-0.107854
-0.107788
-0.107475
-0.107491
-0.10853
-0.111065
-0.115058
-0.120037
-0.125063
-0.128963
-0.130673
-0.129473
-0.124941
-0.117176
-0.106479
-0.0933866
-0.0784719
-0.0625093
-0.0462085
-0.0303292
-0.0155605
-0.00245797
0.00871262
0.0179791
0.025686
0.0323101
0.0383135
0.0440629
0.0498299
0.0556014
0.0612976
0.0669103
0.0722161
0.0771659
0.0817208
0.0857943
0.0893493
0.0923144
0.0944652
0.0957856
0.0961381
0.0956559
0.0945792
0.0933588
0.0923788
0.0918521
0.0916994
0.0915877
0.0909604
0.0893638
0.0865253
0.0825627
0.0777758
0.0726456
0.0675678
0.0628081
0.0585355
0.05476
0.0515234
0.0488892
0.0469392
0.0455944
0.0447647
0.0442375
0.0438277
0.0433188
0.0426123
0.0417038
0.0405991
0.0393317
0.0379158
0.0363487
0.0346748
0.0328952
0.0310109
0.0290124
0.0268056
0.0243051
0.0216018
0.0187897
0.0160246
0.0134462
0.0110004
0.00853031
0.00579672
0.00274598
-0.000743626
-0.00445749
-0.00803275
-0.011175
-0.0135769
-0.0151542
-0.0158886
-0.0158518
-0.0151636
-0.0139583
-0.0123716
-0.0105958
-0.00890431
-0.00758837
-0.00693079
-0.0070817
-0.00793004
-0.00911484
-0.0102152
-0.0108379
-0.0108025
-0.010227
-0.00951414
-0.00919806
-0.00970295
-0.0112607
-0.0137041
-0.0165114
-0.0191433
-0.0209508
-0.0216299
-0.0211121
-0.0195816
-0.0175946
-0.0156407
-0.0142338
-0.0136489
-0.0138807
-0.0147226
-0.0158705
-0.0168619
-0.0174094
-0.0173886
-0.016979
-0.0164362
-0.0160454
-0.0159471
-0.0160868
-0.0162144
-0.0160295
-0.0153562
-0.0142316
-0.012821
-0.0113029
-0.00984571
-0.00844328
-0.00707358
-0.00556748
-0.00395396
-0.00236947
-0.00102621
-0.000164643
4.31965e-5
-0.000494285
-0.00168554
-0.00341312
-0.00547686
-0.00767998
-0.00983305
-0.0116867
-0.013028
-0.0136717
-0.0135582
-0.0127872
-0.0115108
-0.00990037
-0.00802517
-0.00579542
-0.0029876
0.000431353
0.00435311
0.00835539
0.0119995
0.0146397
0.0159973
0.0161058
0.0152512
0.0139083
0.0124622
0.0111863
0.0101644
0.00960835
0.00970792
0.0109222
0.0137638
0.0186014
0.0254295
0.0337126
0.0425206
0.0508644
0.0579472
0.0635013
0.0679397
0.0721232
0.0768739
0.0828249
0.0899868
0.0977091
0.10481
0.110174
0.112872
0.112645
0.10977
0.105007
0.0991519
0.0929134
0.0866262
0.0804386
0.0746481
0.0695955
0.0657628
0.063405
0.0622521
0.0614222
0.0596164
0.0554778
0.0481717
0.037662
0.0247561
0.0107378
-0.00288089
-0.0149482
-0.0247433
-0.0320324
-0.0369011
-0.0396354
-0.0406339
-0.0403658
-0.0393689
-0.0382894
-0.0376312
-0.0379385
-0.0394798
-0.0423097
-0.0462721
-0.0509843
-0.0559985
-0.0607221
-0.064484
-0.066716
-0.0670901
-0.0656438
-0.0629096
-0.0599719
-0.0583898
-0.059916
-0.0662771
-0.078797
-0.098236
-0.124316
-0.155412
-0.188102
-0.216846
-0.234354
-0.2321
-0.201171
-0.13362
-0.0242019
0.127565
0.315391
0.524827
0.733382
0.913004
1.03491
1.07592
1.02486
0.886391
0.68085
0.439698
0.198057
-0.0133422
-0.174119
-0.276756
-0.32548
-0.332301
-0.312314
-0.279609
-0.244739
-0.214291
-0.191235
-0.175804
-0.166807
-0.162564
-0.1614
-0.161992
-0.163415
-0.16506
-0.166447
-0.16717
-0.166983
-0.165799
-0.163757
-0.161198
-0.158561
-0.156347
-0.154858
-0.154161
-0.15416
-0.154503
-0.154736
-0.154467
-0.153445
-0.151621
-0.149238
-0.146676
-0.144313
-0.142447
-0.141056
-0.139944
-0.138723
-0.137107
-0.134908
-0.132234
-0.129398
-0.126826
-0.124839
-0.123503
-0.122646
-0.121977
-0.121227
-0.120258
-0.119258
-0.11855
-0.11844
-0.119176
-0.120701
-0.12272
-0.124817
-0.126522
-0.127491
-0.127629
-0.126823
-0.125098
-0.122584
-0.11936
-0.115628
-0.111706
-0.108064
-0.105178
-0.103411
-0.102754
-0.10292
-0.103411
-0.103785
-0.103716
-0.103321
-0.102917
-0.102955
-0.10385
-0.105723
-0.10853
-0.112083
-0.116053
-0.120058
-0.123658
-0.126296
-0.127175
-0.125567
-0.120827
-0.11268
-0.101379
-0.0877397
-0.0729961
-0.0586799
-0.046157
-0.0364546
-0.0300782
-0.0269525
-0.0264104
-0.0274282
-0.0288807
-0.0297481
-0.0293548
-0.0273736
-0.0238891
-0.0193032
-0.014043
-0.00847229
-0.00281144
0.00287739
0.00868503
0.0147683
0.0212343
0.028218
0.0355813
0.0431601
0.0507511
0.0580841
0.0649925
0.0714859
0.0776587
0.0837158
0.0897967
0.0959331
0.101905
0.107302
0.111564
0.114214
0.114917
0.11351
0.110241
0.105571
0.100072
0.0944101
0.0891091
0.0845871
0.0811374
0.0789632
0.0781125
0.0784469
0.0798171
0.0817723
0.0837486
0.085134
0.0854063
0.0841537
0.0813591
0.0772746
0.0725557
0.0679927
0.0642692
0.0618374
0.0606858
0.0604171
0.0603738
0.0599386
0.0586479
0.0562655
0.0527858
0.0483436
0.0431429
0.0373846
0.0313022
0.025184
0.0195536
0.0148787
0.0115225
0.00965938
0.00912326
0.00944808
0.00990929
0.00988949
0.00892442
0.00702815
0.0044815
0.00176185
-0.000690939
-0.00273167
-0.00450852
-0.00636303
-0.00856388
-0.01114
-0.0138603
-0.0162826
-0.017916
-0.0185881
-0.0185378
-0.0182786
-0.0185008
-0.0197152
-0.022128
-0.02544
-0.0290611
-0.0322695
-0.034532
-0.0356333
-0.035793
-0.0355939
-0.0356542
-0.0363885
-0.0377808
-0.0392941
-0.0400577
-0.039233
-0.0362789
-0.0313286
-0.0250246
-0.0183062
-0.0120115
-0.00652532
-0.00168329
0.00303233
0.00821219
0.0141785
0.020984
0.0282446
0.0354783
0.0421751
0.0478826
0.0522612
0.05511
0.0561942
0.0553625
0.0527165
0.0485442
0.0434724
0.0382672
0.0336759
0.0301753
0.0279792
0.0270278
0.0273649
0.0291399
0.0325665
0.0376902
0.0439097
0.0497369
0.0529664
0.0513757
0.0434319
0.0289845
0.00959102
-0.0121413
-0.0332336
-0.0512777
-0.0649531
-0.0741625
-0.0795164
-0.0820004
-0.0824613
-0.0814272
-0.0792863
-0.076395
-0.0731665
-0.0701378
-0.0677613
-0.0663501
-0.0660148
-0.0667569
-0.0684535
-0.0709965
-0.0741463
-0.0774636
-0.0803511
-0.0822521
-0.0827227
-0.0817336
-0.0800349
-0.0788919
-0.0800857
-0.0854913
-0.096752
-0.114871
-0.139898
-0.170444
-0.203568
-0.234603
-0.257462
-0.265088
-0.249992
-0.204527
-0.121956
0.00196705
0.16657
0.363613
0.575289
0.774676
0.929622
1.01001
0.996374
0.886744
0.698882
0.46631
0.229492
0.024892
-0.123719
-0.209381
-0.240207
-0.233554
-0.208776
-0.181367
-0.160126
-0.147619
-0.142371
-0.14129
-0.1416
-0.141588
-0.140656
-0.138752
-0.136009
-0.132699
-0.129218
-0.12608
-0.123814
-0.122831
-0.123203
-0.124447
-0.125866
-0.126778
-0.126751
-0.125841
-0.124613
-0.123674
-0.123502
-0.124201
-0.125491
-0.126839
-0.127861
-0.128245
-0.127968
-0.127065
-0.125462
-0.123116
-0.119963
-0.116029
-0.111571
-0.107028
-0.102872
-0.0995186
-0.0971684
-0.095726
-0.0949958
-0.0946905
-0.0945275
-0.0944106
-0.0943736
-0.0944799
-0.094706
-0.0949975
-0.0951525
-0.0949855
-0.0943898
-0.0934965
-0.0925354
-0.0918749
-0.0917213
-0.0921618
-0.0930071
-0.0938556
-0.0942347
-0.0937713
-0.0923167
-0.0899207
-0.0869587
-0.0839257
-0.0814159
-0.0799877
-0.0799298
-0.0812319
-0.0835387
-0.086205
-0.0885641
-0.0901785
-0.0909849
-0.0913387
-0.0918395
-0.0930691
-0.0952979
-0.0983956
-0.101795
-0.104628
-0.106035
-0.10531
-0.102106
-0.0964958
-0.0888438
-0.0798115
-0.0701785
-0.0608774
-0.0527175
-0.0463114
-0.0419427
-0.0394465
-0.0381156
-0.0369548
-0.0348367
-0.0308013
-0.0243219
-0.015322
-0.00427058
0.00818403
0.0212262
0.034187
0.0464773
0.0577993
0.0679685
0.076957
0.0849974
0.0922853
0.0989958
0.105192
0.110636
0.115071
0.118136
0.119701
0.119924
0.119219
0.118273
0.117808
0.118275
0.119818
0.122152
0.124725
0.126905
0.128205
0.128374
0.127366
0.12541
0.122809
0.119891
0.116924
0.114215
0.112016
0.110317
0.109024
0.107725
0.105953
0.103343
0.0996922
0.0951495
0.0902022
0.0853569
0.0810851
0.0776146
0.0749347
0.072844
0.0710728
0.0693616
0.0675641
0.0656673
0.063656
0.0615984
0.0595729
0.0576278
0.0558394
0.0542915
0.0530349
0.0521244
0.0515088
0.0510817
0.0506592
0.050043
0.0488928
0.0469637
0.04406
0.0402705
0.0358172
0.0311546
0.0267225
0.0229136
0.0197981
0.0173098
0.0151582
0.0130901
0.0109176
0.00862174
0.00624657
0.00392817
0.00184967
0.00010964
-0.00128198
-0.00230784
-0.00305797
-0.00366874
-0.00427248
-0.0049469
-0.00576617
-0.00671066
-0.00769463
-0.00873413
-0.00976399
-0.0109395
-0.0123706
-0.0141492
-0.016254
-0.0186835
-0.0212571
-0.0238963
-0.0264428
-0.0287831
-0.0307484
-0.0321622
-0.0327101
-0.0320563
-0.0299042
-0.0260354
-0.0204103
-0.0132233
-0.00478548
0.00446149
0.0139735
0.0233012
0.0319946
0.039735
0.0463429
0.0518866
0.0563988
0.060218
0.0636097
0.0667661
0.0697498
0.072513
0.0747373
0.0761642
0.0765267
0.0757465
0.0738999
0.0711561
0.0677563
0.0639609
0.0601262
0.0567368
0.0545131
0.0542351
0.056368
0.0606834
0.0661539
0.0709632
0.0731294
0.0710951
0.064305
0.0531304
0.0389544
0.0233156
0.00772548
-0.0067761
-0.0196855
-0.0307673
-0.0398033
-0.0466807
-0.0512334
-0.0535973
-0.0541312
-0.053404
-0.0521303
-0.0508595
-0.0500397
-0.0498361
-0.0502174
-0.0511026
-0.0523863
-0.0539602
-0.0557038
-0.0574219
-0.0587928
-0.0594358
-0.0592616
-0.0582171
-0.0567002
-0.0555755
-0.0563816
-0.0609803
-0.0713309
-0.0888965
-0.11398
-0.145056
-0.17831
-0.20757
-0.22501
-0.222095
-0.190543
-0.123094
-0.0144422
0.137349
0.328685
0.548153
0.774866
0.979217
1.12716
1.18793
1.14328
0.99462
0.765102
0.494607
0.229142
0.00857042
-0.143319
-0.222607
-0.242417
-0.225279
-0.1942
-0.165878
-0.148181
-0.141421
-0.14183
-0.144939
-0.147632
-0.148871
-0.148974
-0.14883
-0.149009
-0.149609
-0.150415
-0.151135
-0.151571
-0.151733
-0.15168
-0.15156
-0.151454
-0.151302
-0.151001
-0.15044
-0.14951
-0.148298
-0.146879
-0.145408
-0.143946
-0.142482
-0.140851
-0.138874
-0.136335
-0.133175
-0.129502
-0.125553
-0.121823
-0.11868
-0.116499
-0.115412
-0.115353
-0.116046
-0.11711
-0.118151
-0.11893
-0.119384
-0.119547
-0.119638
-0.119734
-0.119854
-0.11987
-0.119511
-0.11856
-0.116868
-0.114509
-0.111625
-0.108526
-0.105479
-0.102696
-0.100248
-0.0980872
-0.0960968
-0.0941603
-0.0922347
-0.0903738
-0.0886766
-0.0873266
-0.0865572
-0.0865232
-0.0872716
-0.0887943
-0.09093
-0.0934252
-0.0960589
-0.0986736
-0.101172
-0.103514
-0.105778
-0.107885
-0.10959
-0.110543
-0.110298
-0.108391
-0.104373
-0.097993
-0.0891181
-0.0779246
-0.0649678
-0.0511567
-0.03776
-0.0260223
-0.0169901
-0.0111796
-0.00824556
-0.00727706
-0.00697128
-0.00602007
-0.00353311
0.000847852
0.00701785
0.0145907
0.0230478
0.0318946
0.0408362
0.0496117
0.0579787
0.0658078
0.0731445
0.0802382
0.0874541
0.0951531
0.103468
0.112221
0.120839
0.128597
0.134845
0.139239
0.141683
0.142518
0.142099
0.140814
0.138968
0.136682
0.13422
0.131726
0.129431
0.127455
0.125822
0.124318
0.122606
0.120293
0.117167
0.113309
0.109032
0.10484
0.101171
0.0982479
0.0960131
0.0942386
0.0925543
0.0907222
0.0887662
0.0868385
0.0852056
0.0840474
0.0833417
0.0828237
0.0821068
0.0809111
0.0789686
0.0763211
0.0731458
0.0696394
0.0659491
0.0621172
0.0581078
0.0539052
0.0495976
0.0453476
0.0414082
0.0379041
0.034837
0.032195
0.0298127
0.0275142
0.0252365
0.0230056
0.0208354
0.0187999
0.0169894
0.0154497
0.0142131
0.0133576
0.0128355
0.0125489
0.012378
0.0120319
0.0113077
0.0100625
0.00827456
0.00608729
0.00372839
0.00141458
-0.000736805
-0.00271552
-0.00468415
-0.00675481
-0.00900991
-0.0114317
-0.0138146
-0.0159037
-0.0174549
-0.0183131
-0.0184307
-0.0178839
-0.0169186
-0.015844
-0.0149166
-0.0143369
-0.0141172
-0.0141959
-0.0144923
-0.0149046
-0.0154209
-0.0159248
-0.016212
-0.0157806
-0.0140304
-0.0102965
-0.00412815
0.00436455
0.0145748
0.0254711
0.0358814
0.0449305
0.0522536
0.0580447
0.0628552
0.0674
0.0722724
0.0777132
0.0836211
0.0895169
0.0946799
0.0983
0.0996287
0.0981365
0.0937104
0.0867355
0.0780707
0.0689481
0.0607974
0.0549378
0.0524427
0.0536516
0.0580876
0.0643463
0.0702971
0.0735375
0.0720934
0.0649368
0.0523092
0.0355757
0.0169415
-0.00123914
-0.0171061
-0.029504
-0.0381562
-0.0434985
-0.0463685
-0.0478978
-0.0490483
-0.0504111
-0.0522714
-0.0544788
-0.0566658
-0.0584832
-0.0597244
-0.0603809
-0.0606514
-0.0606503
-0.0604552
-0.0598432
-0.0585566
-0.0564939
-0.0537274
-0.0508191
-0.0487745
-0.0491575
-0.05379
-0.0644916
-0.0825069
-0.108271
-0.140834
-0.177327
-0.212525
-0.23857
-0.245252
-0.220543
-0.152259
-0.0315038
0.143134
0.361505
0.599598
0.821423
0.985884
1.05743
1.0173
0.870516
0.645933
0.388487
0.145932
-0.044401
-0.164583
-0.217195
-0.219991
-0.196555
-0.167705
-0.146118
-0.135752
-0.13454
-0.138271
-0.143201
-0.14731
-0.150124
-0.152089
-0.153677
-0.154986
-0.155979
-0.156466
-0.156425
-0.155973
-0.155191
-0.15425
-0.153158
-0.151842
-0.15015
-0.147904
-0.144993
-0.141443
-0.137438
-0.133241
-0.1292
-0.12552
-0.122337
-0.119699
-0.117625
-0.115981
-0.114654
-0.113423
-0.112038
-0.110279
-0.108015
-0.105329
-0.102368
-0.0995082
-0.0971142
-0.0953791
-0.0944398
-0.0941052
-0.094153
-0.0941946
-0.0938776
-0.0929574
-0.0913782
-0.0891851
-0.0866405
-0.0840884
-0.0817501
-0.0797694
-0.0782425
-0.0771176
-0.0762933
-0.0757145
-0.075322
-0.0750369
-0.0748987
-0.0748799
-0.0750594
-0.0754989
-0.0762903
-0.0775038
-0.0791418
-0.0812046
-0.0835245
-0.086016
-0.0885693
-0.091119
-0.093651
-0.096165
-0.0986258
-0.100962
-0.102951
-0.104396
-0.105079
-0.104781
-0.103329
-0.1006
-0.0963465
-0.090265
-0.0820586
-0.0715364
-0.0587976
-0.0444519
-0.0293596
-0.0146016
-0.00114148
0.0104008
0.0198506
0.0274896
0.0338764
0.0396793
0.045501
0.0516744
0.0582601
0.0651246
0.072019
0.0786059
0.0846191
0.089955
0.0945648
0.098336
0.101264
0.103281
0.104303
0.10441
0.103682
0.102201
0.100031
0.0971528
0.0934139
0.0888248
0.0835641
0.0780909
0.0730776
0.0691036
0.0665514
0.0654464
0.0653861
0.0658549
0.0663415
0.0665837
0.0664975
0.066226
0.0658944
0.0655496
0.0650233
0.0641431
0.0626912
0.0605781
0.0578392
0.0545871
0.0511016
0.047617
0.0442298
0.0408822
0.0374424
0.0337267
0.0296619
0.0254048
0.0212516
0.0176674
0.014979
0.0133074
0.0124179
0.0119451
0.0113472
0.010078
0.00788145
0.00475046
0.00092633
-0.00316325
-0.00700259
-0.0101272
-0.0122683
-0.0133887
-0.0136423
-0.0133582
-0.0129785
-0.012926
-0.0135065
-0.0148731
-0.0169782
-0.0196575
-0.0225627
-0.0253504
-0.0277178
-0.029393
-0.030274
-0.0304675
-0.0300792
-0.0294342
-0.0287376
-0.0280905
-0.0274473
-0.0266729
-0.0255729
-0.0240788
-0.0222344
-0.0203128
-0.0186551
-0.0175297
-0.0171103
-0.0172437
-0.0175069
-0.0172355
-0.0156239
-0.0121062
-0.00647535
0.000980483
0.00945823
0.0179361
0.025579
0.0319439
0.0372319
0.0420991
0.0473788
0.0536787
0.0610776
0.069122
0.0769262
0.0834684
0.08781
0.0893031
0.0877131
0.0833633
0.0770019
0.0697051
0.0628441
0.0576991
0.0554299
0.056418
0.0601915
0.0654129
0.0700665
0.0719476
0.0693573
0.0614605
0.0486082
0.0322085
0.0143126
-0.00288116
-0.0176349
-0.0288714
-0.0362751
-0.0400693
-0.040955
-0.0397469
-0.0374062
-0.0347723
-0.0325588
-0.0314168
-0.031797
-0.0338814
-0.0375565
-0.0424431
-0.0479924
-0.0534179
-0.0578072
-0.0602797
-0.0602737
-0.0575372
-0.052506
-0.0462752
-0.0409225
-0.0391277
-0.043793
-0.0575201
-0.0817493
-0.115803
-0.156054
-0.195562
-0.224153
-0.229312
-0.197692
-0.118041
0.015146
0.197902
0.413953
0.634722
0.823238
0.942377
0.964937
0.882676
0.710104
0.481379
0.241012
0.0310067
-0.120215
-0.203563
-0.227893
-0.213248
-0.182048
-0.151593
-0.130867
-0.121103
-0.119019
-0.120282
-0.121754
-0.122173
-0.121847
-0.12162
-0.122217
-0.12397
-0.126753
-0.130322
-0.134198
-0.137811
-0.140487
-0.141598
-0.140896
-0.138389
-0.134509
-0.129943
-0.125356
-0.121261
-0.117922
-0.115256
-0.113031
-0.111163
-0.109542
-0.10828
-0.107485
-0.107169
-0.107187
-0.107288
-0.107144
-0.106606
-0.105668
-0.104466
-0.10334
-0.102625
-0.102494
-0.102922
-0.103702
-0.104428
-0.10466
-0.104026
-0.102319
-0.0994436
-0.0955137
-0.0908561
-0.0858443
-0.0809894
-0.0767603
-0.0734319
-0.0712196
-0.0700719
-0.06981
-0.0701422
-0.0707927
-0.0715186
-0.0723313
-0.0732357
-0.074347
-0.0757554
-0.0774729
-0.0794884
-0.0818006
-0.0844032
-0.0872589
-0.0903227
-0.0934481
-0.096465
-0.0992165
-0.101648
-0.10385
-0.106079
-0.10853
-0.111282
-0.114021
-0.116126
-0.116643
-0.114695
-0.109564
-0.100998
-0.0892502
-0.075058
-0.0594543
-0.043544
-0.0281618
-0.0138807
-0.000884707
0.0109193
0.021722
0.0317009
0.0409159
0.0492508
0.056545
0.0625882
0.0672498
0.0705918
0.0727832
0.0741582
0.0750791
0.0758787
0.0767664
0.0778217
0.0789413
0.079932
0.0806553
0.0809788
0.0809445
0.0804886
0.0796287
0.0781879
0.0760305
0.0731403
0.0697311
0.0663378
0.0636521
0.0622136
0.0621256
0.0629437
0.0637146
0.063422
0.061429
0.0576479
0.0527373
0.0477106
0.0433125
0.0399119
0.0372849
0.0347624
0.0317165
0.0279066
0.0235678
0.019294
0.0157973
0.0136181
0.0128083
0.0131462
0.0140526
0.0149455
0.0154588
0.0154152
0.0148842
0.0139646
0.0127382
0.011076
0.00879674
0.00568983
0.00162576
-0.00326321
-0.00862144
-0.0139331
-0.01865
-0.0224409
-0.0252171
-0.0271645
-0.0285395
-0.029585
-0.030399
-0.0308514
-0.0306539
-0.0295144
-0.0272119
-0.0238575
-0.0198295
-0.0156683
-0.0121514
-0.00985767
-0.00927064
-0.0104258
-0.0129849
-0.016319
-0.0197791
-0.02296
-0.0257257
-0.0280394
-0.029797
-0.0306948
-0.0301376
-0.0275336
-0.0227136
-0.0160185
-0.00845458
-0.00126728
0.00447059
0.00857834
0.0116133
0.0148262
0.0195899
0.0267903
0.03641
0.0474399
0.0583617
0.0674552
0.0734393
0.0757885
0.0746739
0.0708235
0.0652849
0.0591084
0.0532588
0.0486839
0.0461442
0.0460999
0.0484269
0.0521911
0.0557916
0.0574004
0.055392
0.0490444
0.0387287
0.02575
0.0118079
-0.00159147
-0.0136328
-0.0242173
-0.0337657
-0.0426469
-0.0509903
-0.0585159
-0.0646958
-0.069077
-0.0714803
-0.0720188
-0.0711546
-0.0695033
-0.0676022
-0.0658839
-0.0646012
-0.0637823
-0.0633841
-0.0632966
-0.0634233
-0.0638211
-0.0644959
-0.0654192
-0.0664606
-0.0674992
-0.0683544
-0.0692531
-0.0710586
-0.0752909
-0.0838119
-0.0984673
-0.120235
-0.148372
-0.179707
-0.208356
-0.225779
-0.221486
-0.184323
-0.104519
0.0232806
0.196729
0.403184
0.618783
0.811102
0.94527
0.992754
0.939953
0.793489
0.57964
0.337761
0.109586
-0.0719323
-0.190056
-0.245693
-0.253413
-0.233941
-0.206445
-0.183549
-0.170188
-0.165451
-0.16568
-0.167344
-0.168409
-0.168486
-0.16807
-0.167524
-0.166781
-0.16543
-0.163052
-0.159683
-0.155832
-0.15225
-0.149604
-0.148142
-0.147505
-0.146962
-0.145723
-0.143337
-0.139797
-0.135713
-0.131906
-0.12921
-0.12817
-0.129011
-0.131527
-0.135174
-0.139227
-0.142844
-0.145279
-0.145878
-0.144389
-0.141049
-0.136447
-0.131444
-0.126895
-0.123274
-0.120595
-0.118615
-0.116885
-0.115198
-0.113728
-0.112778
-0.112744
-0.113758
-0.115491
-0.117292
-0.118488
-0.118381
-0.11671
-0.113582
-0.10941
-0.104813
-0.100462
-0.0969165
-0.0945733
-0.0936868
-0.0941453
-0.0956056
-0.0975665
-0.0995236
-0.101059
-0.1021
-0.102843
-0.1036
-0.104832
-0.106739
-0.109474
-0.113087
-0.117577
-0.122959
-0.129317
-0.136462
-0.143897
-0.150938
-0.156636
-0.159992
-0.160187
-0.156695
-0.149416
-0.138677
-0.125178
-0.109925
-0.0940962
-0.0788638
-0.0651875
-0.0536318
-0.044373
-0.0370889
-0.031275
-0.0261912
-0.0211414
-0.0155004
-0.00861915
-3.7283e-5
0.010554
0.0231159
0.0372861
0.052227
0.066874
0.0801355
0.0911656
0.099562
0.105456
0.109347
0.111909
0.113682
0.115113
0.116439
0.117832
0.119502
0.12166
0.124418
0.127769
0.131466
0.135119
0.138147
0.140108
0.140698
0.139833
0.137744
0.134678
0.131056
0.12727
0.123695
0.120563
0.117973
0.115918
0.114289
0.112781
0.110994
0.108536
0.105175
0.100825
0.0957112
0.0902783
0.0851507
0.0809336
0.0781228
0.0769597
0.0772417
0.0785438
0.0801698
0.0814798
0.0820235
0.081604
0.0802692
0.0783298
0.0761459
0.0740029
0.0721098
0.070511
0.0690794
0.0675769
0.0656989
0.0632289
0.0601618
0.0567308
0.0533349
0.0504367
0.0483429
0.0470612
0.0462725
0.0454743
0.04426
0.0423879
0.0400776
0.0377098
0.0358613
0.0349944
0.0352542
0.0364892
0.0382261
0.0398818
0.0410287
0.0414777
0.0412326
0.0404367
0.0392345
0.0376486
0.0355771
0.0328995
0.0295354
0.0256427
0.0215141
0.0175269
0.0140189
0.0112853
0.0095189
0.00897835
0.00989637
0.0126391
0.0174279
0.0243461
0.033105
0.0430056
0.0530785
0.0622581
0.0697462
0.0751918
0.0788109
0.0812432
0.0832947
0.0856707
0.0887058
0.0922096
0.095604
0.0981973
0.0993629
0.0986837
0.0962598
0.0924807
0.0879168
0.0831598
0.0786565
0.074661
0.0713532
0.0689011
0.067469
0.0673693
0.0688017
0.0716186
0.0750815
0.0779225
0.0785373
0.0755434
0.0681684
0.0564992
0.0415994
0.0250488
0.00856669
-0.00637975
-0.0187907
-0.0283211
-0.0349179
-0.0387273
-0.0401447
-0.0397198
-0.0382084
-0.03644
-0.0351184
-0.0347148
-0.0353764
-0.0369846
-0.0391153
-0.0413895
-0.0434362
-0.0450067
-0.0459942
-0.046389
-0.0462508
-0.0458419
-0.0456158
-0.0460971
-0.0481367
-0.0528629
-0.0616253
-0.0757893
-0.0963728
-0.123353
-0.155044
-0.187611
-0.215277
-0.231281
-0.229221
-0.204624
-0.15591
-0.0841557
0.00771247
0.116511
0.24018
0.37811
0.5299
0.693171
0.860847
1.01911
1.14739
1.22163
1.22027
1.13146
0.958735
0.722881
0.458014
0.203225
-0.00759413
-0.154056
-0.233006
-0.256349
-0.244522
-0.218561
-0.194054
-0.178494
-0.17241
-0.172551
-0.174804
-0.176338
-0.176112
-0.174534
-0.172469
-0.170689
-0.169468
-0.168799
-0.1684
-0.16793
-0.167068
-0.165797
-0.164085
-0.162301
-0.160788
-0.159891
-0.159718
-0.160252
-0.161128
-0.161916
-0.162192
-0.161629
-0.160105
-0.157738
-0.154742
-0.15135
-0.147866
-0.144426
-0.141234
-0.138457
-0.136293
-0.134834
-0.13409
-0.133856
-0.133884
-0.133762
-0.133352
-0.132519
-0.131543
-0.130752
-0.130635
-0.131532
-0.133608
-0.136626
-0.140107
-0.143337
-0.145613
-0.146486
-0.145762
-0.143722
-0.140851
-0.137769
-0.134956
-0.132692
-0.13101
-0.129895
-0.129254
-0.129131
-0.129649
-0.130866
-0.13273
-0.135218
-0.138235
-0.141842
-0.146141
-0.151228
-0.157092
-0.163348
-0.169293
-0.174013
-0.176594
-0.176473
-0.173421
-0.167636
-0.159632
-0.149804
-0.138413
-0.125445
-0.110591
-0.0936161
-0.0744806
-0.0536137
-0.0320046
-0.010912
0.00843034
0.025054
0.0385336
0.0490327
0.0572519
0.06407
0.0702683
0.0764235
0.0827135
0.0889829
0.0948277
0.099862
0.103779
0.106579
0.108416
0.109714
0.110882
0.112208
0.113766
0.115441
0.116957
0.118077
0.118482
0.118102
0.11698
0.115312
0.113324
0.111179
0.108993
0.106803
0.10445
0.101837
0.0988606
0.0954547
0.0916863
0.0877152
0.0838695
0.0803406
0.0772765
0.0747205
0.0726245
0.0707399
0.068967
0.0671998
0.0654639
0.0639233
0.0626338
0.0615539
0.0606337
0.0596553
0.0584699
0.0569963
0.0551685
0.0531265
0.050954
0.0487751
0.0466402
0.0444888
0.0420661
0.039082
0.035224
0.0303949
0.0245707
0.0180871
0.0114681
0.00536287
0.000355103
-0.00308381
-0.00483678
-0.00502828
-0.00405864
-0.00244647
-0.000671703
0.000931031
0.00211135
0.00284575
0.0031673
0.00309376
0.0025988
0.00160341
8.18338e-5
-0.00188927
-0.00407527
-0.00627618
-0.00812522
-0.00948934
-0.0103018
-0.0107189
-0.010982
-0.0114298
-0.0122827
-0.0136769
-0.015535
-0.017652
-0.0197729
-0.0215854
-0.0228342
-0.023391
-0.0230594
-0.0217401
-0.0191486
-0.0149734
-0.00887472
-0.000774206
0.00904406
0.0198427
0.030613
0.0402782
0.048217
0.0543785
0.0592207
0.0635456
0.0682023
0.073454
0.0791098
0.0845017
0.0886915
0.0909002
0.0906477
0.0879356
0.0832007
0.0771743
0.0708198
0.0651598
0.0610667
0.0593569
0.060498
0.0644798
0.070577
0.0773183
0.0827546
0.0848895
0.0823302
0.0746895
0.0627904
0.0483542
0.0335484
0.0202878
0.00962674
0.00172804
-0.00399506
-0.00842631
-0.0122276
-0.0158418
-0.0192389
-0.0221975
-0.0245701
-0.0263412
-0.027808
-0.02949
-0.031771
-0.0348775
-0.0386816
-0.0427376
-0.0465139
-0.0494614
-0.0511971
-0.0515308
-0.0504786
-0.04816
-0.0448608
-0.0410388
-0.037385
-0.0348093
-0.0346066
-0.0381473
-0.0469304
-0.0620991
-0.0842227
-0.112724
-0.145553
-0.178661
-0.205727
-0.218765
-0.20861
-0.165889
-0.0824078
0.046908
0.221495
0.432373
0.660403
0.876698
1.04642
1.13632
1.1241
1.00621
0.80113
0.545739
0.28551
0.0619133
-0.0979752
-0.186779
-0.214862
-0.203312
-0.175099
-0.147824
-0.130476
-0.12425
-0.125897
-0.1309
-0.135919
-0.139481
-0.141655
-0.143109
-0.14458
-0.146359
-0.148307
-0.150086
-0.151155
-0.151244
-0.150246
-0.14824
-0.145644
-0.142904
-0.140343
-0.138064
-0.136039
-0.134115
-0.132028
-0.129691
-0.127039
-0.124217
-0.121399
-0.118828
-0.116712
-0.11522
-0.114407
-0.114196
-0.114371
-0.114737
-0.115037
-0.115012
-0.114543
-0.113504
-0.111984
-0.110016
-0.107785
-0.105542
-0.103421
-0.101458
-0.0997002
-0.0980877
-0.0966262
-0.095344
-0.0944627
-0.0941355
-0.0945791
-0.0957913
-0.0976352
-0.0999173
-0.102298
-0.104479
-0.106208
-0.107231
-0.107365
-0.106479
-0.104589
-0.101893
-0.0986566
-0.0953365
-0.0922482
-0.0897681
-0.0880925
-0.0873044
-0.0873111
-0.0879614
-0.0890687
-0.0904492
-0.0919822
-0.0936232
-0.0953233
-0.0969825
-0.0984337
-0.0993141
-0.0992092
-0.0975971
-0.0939403
-0.0879095
-0.0793595
-0.0685763
-0.0562519
-0.043456
-0.0314706
-0.0213175
-0.0136814
-0.0084694
-0.00511472
-0.00252712
0.000370547
0.00451721
0.0103697
0.0179716
0.02711
0.0373305
0.0481617
0.0591525
0.0698096
0.0796153
0.0882149
0.095305
0.100772
0.104796
0.107616
0.109669
0.111181
0.112377
0.113208
0.113494
0.113042
0.111624
0.109299
0.1062
0.102672
0.0991741
0.0960901
0.0936518
0.0919833
0.0910343
0.0905653
0.090492
0.0907077
0.0910672
0.0915303
0.0919862
0.0922764
0.0923047
0.0920171
0.0914433
0.0906484
0.0896694
0.0885494
0.0871509
0.0853668
0.0830614
0.0802437
0.0770434
0.0737454
0.070698
0.0681097
0.0658989
0.0637861
0.0612864
0.0579765
0.0536038
0.0484063
0.0427613
0.0371913
0.0322304
0.0281563
0.0250362
0.022796
0.0212698
0.0203704
0.0199288
0.0198462
0.019956
0.0200771
0.020098
0.0198752
0.0193098
0.0183517
0.0169631
0.0150709
0.0126583
0.00991051
0.00707164
0.00457367
0.00285452
0.00213281
0.00240403
0.0032835
0.00427403
0.00499539
0.00526327
0.00520975
0.00520491
0.00562941
0.00670233
0.00825732
0.00986967
0.0110226
0.0113181
0.0106203
0.00908358
0.00712615
0.0052172
0.00356584
0.00227316
0.00118738
0.000174317
-0.000873807
-0.00188895
-0.00276309
-0.0033068
-0.00341487
-0.00296171
-0.00180747
0.000530318
0.004496
0.0105727
0.0188805
0.0290283
0.040089
0.0507845
0.0600704
0.0673704
0.0728077
0.0770356
0.0810176
0.0854912
0.0907041
0.096326
0.101639
0.105739
0.108044
0.108224
0.106218
0.102193
0.0965171
0.0896337
0.0822915
0.0754591
0.070462
0.0682302
0.0693272
0.0733469
0.0789453
0.0841914
0.0870983
0.0862501
0.0810541
0.0718659
0.0596337
0.0456416
0.031064
0.0169058
0.00391111
-0.00736438
-0.0164623
-0.0231281
-0.0275149
-0.0301462
-0.0317754
-0.0332457
-0.0353281
-0.0383251
-0.0421762
-0.0463731
-0.0503589
-0.0535058
-0.0554427
-0.0560597
-0.0554771
-0.0540261
-0.0521337
-0.0502868
-0.0490042
-0.0488275
-0.0504237
-0.0547937
-0.0632008
-0.0770109
-0.0974369
-0.124908
-0.158359
-0.194679
-0.228836
-0.254441
-0.265064
-0.255433
-0.222056
-0.162903
-0.0760789
0.0405124
0.188444
0.365918
0.564338
0.765182
0.94035
1.05707
1.0868
1.01532
0.849337
0.616608
0.358951
0.120346
-0.0652218
-0.181788
-0.232549
-0.234835
-0.211455
-0.182538
-0.160417
-0.149008
-0.146455
-0.148643
-0.151972
-0.154414
-0.155619
-0.156014
-0.155981
-0.155491
-0.154359
-0.152405
-0.149616
-0.146293
-0.142797
-0.139531
-0.136744
-0.134437
-0.132384
-0.130177
-0.127496
-0.124251
-0.120711
-0.117372
-0.114902
-0.113815
-0.114272
-0.116063
-0.118529
-0.120974
-0.122722
-0.12337
-0.122745
-0.120927
-0.11818
-0.11482
-0.111117
-0.107351
-0.103791
-0.100719
-0.0983333
-0.0967852
-0.0960524
-0.095915
-0.0960914
-0.0961717
-0.0957762
-0.0946712
-0.0927841
-0.0902974
-0.0875002
-0.0847783
-0.0824404
-0.0806345
-0.079392
-0.0786386
-0.078271
-0.0782201
-0.078575
-0.0795109
-0.0811548
-0.0835055
-0.0864893
-0.0897729
-0.0929898
-0.0956454
-0.0973253
-0.0977772
-0.0970045
-0.0952383
-0.0929005
-0.0904765
-0.0884308
-0.0870426
-0.086426
-0.0864675
-0.0869967
-0.087676
-0.0879653
-0.0872018
-0.0846603
-0.0796668
-0.0719551
-0.0617698
-0.0499785
-0.0377608
-0.0264273
-0.0170321
-0.0100608
-0.00550665
-0.00287944
-0.00148971
-0.00068183
4.85866e-5
0.00109037
0.00263371
0.00498337
0.00821408
0.0125483
0.0180544
0.0247476
0.0324564
0.0409716
0.0500253
0.0592191
0.0681761
0.0765205
0.0839496
0.0903771
0.0957913
0.10033
0.104195
0.107453
0.110115
0.112017
0.113078
0.113093
0.111953
0.109567
0.105899
0.101091
0.0955488
0.0897881
0.0845806
0.0805411
0.0780093
0.076901
0.076737
0.0768404
0.0765495
0.0754884
0.0736687
0.0714093
0.0691605
0.0673142
0.0659938
0.0651473
0.0643779
0.0632795
0.061495
0.0588694
0.0554348
0.0514856
0.0473286
0.0432999
0.0396414
0.0363621
0.0332867
0.0301312
0.0266186
0.0226827
0.0185226
0.0145338
0.0112363
0.00904199
0.00810941
0.00830423
0.0092379
0.0104115
0.0113268
0.0116016
0.0110355
0.00954688
0.00732851
0.00469506
0.00207525
-2.93663e-5
-0.00135226
-0.00182356
-0.00162262
-0.00122066
-0.00104698
-0.00150807
-0.00291118
-0.00530047
-0.00860832
-0.0126394
-0.0170033
-0.021176
-0.0244833
-0.0262867
-0.0261586
-0.0240682
-0.0205033
-0.0162887
-0.0124495
-0.009818
-0.00886719
-0.00951537
-0.0113204
-0.0135627
-0.0156182
-0.0170637
-0.0177698
-0.0179367
-0.0179345
-0.0180607
-0.0185277
-0.0192679
-0.0197975
-0.0195445
-0.0177793
-0.0140065
-0.00810874
-0.000343431
0.00855308
0.0177219
0.0263609
0.0339901
0.0405807
0.0464228
0.0520239
0.0577113
0.0636006
0.0692839
0.0742699
0.0780088
0.0802109
0.0808787
0.0802404
0.0785002
0.0758213
0.0722881
0.0680133
0.0633898
0.0591295
0.0560414
0.0545735
0.0545465
0.0549469
0.0541241
0.0504635
0.0428518
0.0311435
0.0162464
-0.000219613
-0.0164792
-0.0310861
-0.0433084
-0.0530994
-0.0605267
-0.0658245
-0.0690181
-0.0698973
-0.0683247
-0.0644623
-0.0588378
-0.0525836
-0.0470643
-0.0434421
-0.042354
-0.0437386
-0.0467801
-0.0502516
-0.0530477
-0.0545442
-0.0547873
-0.0544285
-0.0543422
-0.0552008
-0.057159
-0.0597258
-0.062133
-0.0636123
-0.0637123
-0.0624723
-0.060843
-0.0603747
-0.0630851
-0.071115
-0.0860668
-0.108557
-0.137531
-0.169454
-0.198321
-0.215966
-0.21261
-0.177943
-0.102926
0.017863
0.183284
0.383111
0.596608
0.794065
0.941643
1.00941
0.979818
0.853976
0.652932
0.412848
0.175345
-0.0236086
-0.162145
-0.235879
-0.25534
-0.239625
-0.208948
-0.178726
-0.157221
-0.146235
-0.143375
-0.144812
-0.147044
-0.148031
-0.147146
-0.144839
-0.141942
-0.139408
-0.137764
-0.137104
-0.13702
-0.136989
-0.136616
-0.135859
-0.134956
-0.134217
-0.133771
-0.133409
-0.132759
-0.131393
-0.129183
-0.126281
-0.123059
-0.119961
-0.117151
-0.114615
-0.112319
-0.110174
-0.108368
-0.107179
-0.10681
-0.107218
-0.108108
-0.108836
-0.108777
-0.107509
-0.105125
-0.102059
-0.0991159
-0.0970731
-0.0965199
-0.0976647
-0.100262
-0.103837
-0.10768
-0.111108
-0.113577
-0.114695
-0.114354
-0.112676
-0.109959
-0.106736
-0.103626
-0.101238
-0.0999847
-0.0999467
-0.100912
-0.102395
-0.10368
-0.104256
-0.103813
-0.102458
-0.100718
-0.0993944
-0.0992282
-0.100797
-0.104078
-0.108623
-0.113728
-0.118601
-0.122752
-0.12611
-0.128933
-0.131634
-0.134453
-0.137168
-0.139121
-0.139272
-0.136537
-0.130116
-0.119857
-0.106423
-0.0912665
-0.0763203
-0.0634917
-0.054056
-0.0483586
-0.045782
-0.0448705
-0.0439885
-0.0417952
-0.0375537
-0.0314416
-0.0241348
-0.0163884
-0.00868605
-0.000975373
0.00724755
0.0166297
0.0275634
0.0398841
0.0529141
0.0655361
0.0766498
0.0854997
0.0918257
0.0959341
0.0984229
0.100063
0.101517
0.103111
0.104921
0.106742
0.108254
0.109166
0.1094
0.108959
0.107872
0.106239
0.1041
0.101519
0.0986451
0.0957981
0.0934588
0.092009
0.0915593
0.0918703
0.0923307
0.0921806
0.0907976
0.0879045
0.083719
0.0787616
0.073834
0.0696496
0.0666562
0.0649616
0.0642763
0.0640055
0.0635087
0.0624061
0.060568
0.0583489
0.0562795
0.0548682
0.0542488
0.0540866
0.0536216
0.0520045
0.0486063
0.0433824
0.0368768
0.0301317
0.024249
0.0201351
0.0181166
0.0180225
0.0191708
0.0207604
0.022007
0.0225067
0.0221841
0.0213905
0.0205212
0.0199715
0.019969
0.0203141
0.0207468
0.0208498
0.0204448
0.0195316
0.018431
0.0175478
0.0172014
0.0174398
0.017935
0.0181691
0.0176404
0.0160575
0.013488
0.0103374
0.00720889
0.00458171
0.00274802
0.00164566
0.00104512
0.00059895
0.000172718
-0.000348607
-0.000867368
-0.0012695
-0.00153809
-0.00152889
-0.00124881
-0.000625282
0.000321245
0.00163259
0.00337456
0.00577095
0.00900627
0.0133011
0.0187773
0.0253709
0.0327443
0.0404109
0.0478815
0.0547891
0.0610346
0.0667967
0.0722778
0.0776446
0.0827841
0.0874156
0.0910531
0.0931773
0.0934272
0.0917186
0.0883165
0.0836896
0.0785369
0.0736592
0.0698441
0.0677168
0.0674361
0.0684716
0.0696831
0.0693718
0.0658711
0.0581148
0.0459607
0.0303916
0.0133128
-0.00308038
-0.0169142
-0.0270702
-0.0333086
-0.0361435
-0.0364075
-0.0350686
-0.0329702
-0.0307642
-0.0288474
-0.0274332
-0.0265497
-0.0260426
-0.0257076
-0.0253978
-0.0250629
-0.0249639
-0.0253942
-0.0267274
-0.0290697
-0.0320377
-0.0349183
-0.0370044
-0.0377362
-0.0371133
-0.0358732
-0.0354694
-0.0378223
-0.0449266
-0.0584185
-0.0791512
-0.106631
-0.138289
-0.169102
-0.191467
-0.195672
-0.17079
-0.106323
0.00518021
0.165184
0.36621
0.589963
0.807923
0.985242
1.08822
1.09332
0.994719
0.807633
0.565307
0.310454
0.0838682
-0.0858519
-0.18772
-0.227785
-0.223591
-0.19641
-0.164266
-0.138244
-0.122376
-0.115718
-0.115119
-0.117323
-0.119964
-0.121867
-0.122584
-0.122014
-0.120263
-0.11763
-0.114509
-0.111398
-0.1086
-0.106315
-0.104642
-0.103636
-0.1033
-0.103669
-0.104772
-0.10646
-0.108531
-0.110661
-0.112582
-0.114092
-0.115131
-0.11574
-0.116007
-0.11597
-0.11554
-0.11457
-0.113003
-0.110938
-0.108652
-0.106548
-0.104929
-0.103953
-0.103546
-0.103413
-0.103339
-0.103185
-0.102959
-0.102751
-0.102726
-0.10292
-0.103336
-0.103948
-0.104656
-0.105504
-0.106341
-0.10703
-0.107431
-0.107358
-0.106767
-0.105721
-0.104422
-0.103059
-0.101745
-0.100545
-0.0994223
-0.0983121
-0.0971419
-0.0958577
-0.0945274
-0.0933026
-0.0922791
-0.0917471
-0.0919112
-0.0930155
-0.0951283
-0.0982613
-0.102125
-0.106486
-0.111134
-0.115834
-0.120608
-0.125356
-0.129878
-0.133816
-0.13648
-0.137208
-0.135319
-0.130349
-0.122336
-0.111788
-0.0996113
-0.086994
-0.0751555
-0.0649585
-0.0567335
-0.0501286
-0.0444571
-0.0387118
-0.0320691
-0.0240596
-0.0145715
-0.00386893
0.00763689
0.0195358
0.0314212
0.0428848
0.0536893
0.0635264
0.0723016
0.0800293
0.0867515
0.0925539
0.0975437
0.101665
0.104878
0.107249
0.108838
0.109899
0.110802
0.11181
0.113085
0.114516
0.115854
0.116784
0.117039
0.116632
0.1157
0.114597
0.113516
0.112637
0.111815
0.110824
0.109215
0.106807
0.103456
0.0992652
0.0945199
0.0896831
0.0851608
0.0812959
0.0782296
0.0758546
0.0740159
0.0724839
0.0710643
0.0696781
0.0683225
0.067069
0.0659481
0.0649435
0.0640149
0.0630891
0.062023
0.0607071
0.0590846
0.0570938
0.0547858
0.0522344
0.0496567
0.047088
0.0445483
0.0418231
0.0386502
0.0348575
0.0304477
0.0256638
0.0210494
0.0172313
0.014683
0.0136282
0.0138636
0.0148844
0.0162062
0.0173686
0.0181958
0.0187572
0.0192069
0.0196233
0.0200118
0.0201657
0.0198805
0.0189084
0.0171545
0.0147783
0.011977
0.00904042
0.0061072
0.00319754
0.000199239
-0.00309704
-0.00682875
-0.0108984
-0.0150254
-0.0187219
-0.0214643
-0.0229392
-0.0229728
-0.0217283
-0.0196164
-0.0171731
-0.01487
-0.0131444
-0.012273
-0.0122868
-0.0130883
-0.0143924
-0.0157851
-0.0168419
-0.0169031
-0.0153527
-0.0116111
-0.00538725
0.00320076
0.0135863
0.0247165
0.0354085
0.0446091
0.051812
0.0571363
0.0612773
0.0651055
0.0694524
0.074544
0.080247
0.0858845
0.0907882
0.0943625
0.0963087
0.0966746
0.0956188
0.0933617
0.0900851
0.0858811
0.0811349
0.0764785
0.0728817
0.0714553
0.0730562
0.0778918
0.0851356
0.0929911
0.0989935
0.100781
0.096814
0.0867642
0.0716596
0.0533799
0.0341321
0.0157196
-0.000782775
-0.0148654
-0.0264714
-0.0357491
-0.0427808
-0.0476236
-0.0504739
-0.0516625
-0.0517102
-0.0511923
-0.0505838
-0.0501506
-0.0499657
-0.0500548
-0.0502771
-0.0507037
-0.0514271
-0.0525445
-0.0539626
-0.0554576
-0.0567653
-0.0576588
-0.0584218
-0.0600009
-0.0643648
-0.0738336
-0.0905608
-0.115732
-0.148621
-0.185848
-0.221055
-0.245279
-0.247766
-0.217245
-0.143413
-0.0191848
0.156407
0.375396
0.618769
0.856797
1.0524
1.169
1.18002
1.07787
0.878103
0.616812
0.34119
0.0967243
-0.0848422
-0.1919
-0.232291
-0.226813
-0.199843
-0.171297
-0.152366
-0.14558
-0.148172
-0.155605
-0.164123
-0.171631
-0.177508
-0.181859
-0.184786
-0.186273
-0.186273
-0.18494
-0.182611
-0.17984
-0.176962
-0.174227
-0.17162
-0.168999
-0.166086
-0.162857
-0.159333
-0.155755
-0.152448
-0.14971
-0.147797
-0.146695
-0.146205
-0.146107
-0.146087
-0.145969
-0.145599
-0.144802
-0.143476
-0.141526
-0.138878
-0.135593
-0.13183
-0.12783
-0.124023
-0.120652
-0.118011
-0.116153
-0.114973
-0.114186
-0.113495
-0.11257
-0.111344
-0.109908
-0.108504
-0.107477
-0.107053
-0.107303
-0.108093
-0.109184
-0.11034
-0.111404
-0.112234
-0.112871
-0.113254
-0.113332
-0.113083
-0.112435
-0.11139
-0.110099
-0.108721
-0.107507
-0.106673
-0.106271
-0.10622
-0.106321
-0.106394
-0.106389
-0.106315
-0.106272
-0.106411
-0.106672
-0.106827
-0.106408
-0.104899
-0.101764
-0.0966337
-0.0893116
-0.0798513
-0.0685013
-0.0558447
-0.0425646
-0.029401
-0.0169218
-0.00540061
0.00525737
0.0154697
0.0256907
0.0362352
0.0470583
0.057762
0.0677397
0.076391
0.0834038
0.0887659
0.0927611
0.0958576
0.0984432
0.100857
0.103234
0.10559
0.107952
0.1103
0.112646
0.114922
0.116937
0.118425
0.118976
0.118163
0.115761
0.111813
0.10678
0.101431
0.0966122
0.0930164
0.0909159
0.0901254
0.090077
0.0901771
0.0899108
0.0890599
0.0877372
0.0861607
0.0845434
0.0829442
0.0812735
0.0793739
0.0769927
0.0739739
0.0703377
0.066086
0.0613505
0.0563072
0.0510721
0.0457984
0.0405586
0.0354789
0.0307003
0.0263798
0.0227781
0.0201628
0.0188379
0.0189039
0.0202899
0.0224984
0.0248154
0.0263569
0.0263928
0.0245619
0.0211267
0.0167274
0.0123379
0.00877608
0.00652743
0.00565021
0.00561498
0.00577386
0.00545351
0.00408623
0.00139459
-0.00251197
-0.00724362
-0.0121776
-0.0166561
-0.0199018
-0.0214365
-0.021011
-0.0188465
-0.0154176
-0.0115475
-0.00811307
-0.00577191
-0.00483651
-0.00525943
-0.00658504
-0.00819239
-0.0094606
-0.0100251
-0.00980474
-0.00900778
-0.00805494
-0.00736293
-0.0072265
-0.00773901
-0.00871949
-0.00979719
-0.0105819
-0.0107832
-0.0103348
-0.00926662
-0.00779187
-0.00598647
-0.00378181
-0.000892047
0.0030395
0.00829468
0.0149515
0.0226123
0.0306507
0.0384297
0.0454866
0.0516593
0.0572522
0.0627461
0.0686371
0.0750992
0.0818694
0.0883464
0.0937747
0.0974609
0.099017
0.0984384
0.0960266
0.092315
0.0880085
0.0838916
0.0807237
0.0792974
0.0800605
0.0828975
0.0867533
0.0899127
0.0901699
0.0855816
0.0752122
0.0593693
0.0396366
0.0184483
-0.00170122
-0.0188776
-0.0320099
-0.0408958
-0.045907
-0.0477345
-0.0472494
-0.0454122
-0.0431972
-0.0414608
-0.0408405
-0.0415137
-0.0432179
-0.0453723
-0.0472548
-0.048378
-0.0485247
-0.0478517
-0.0465683
-0.0450168
-0.0433513
-0.0416709
-0.0401395
-0.0391999
-0.0397751
-0.0434624
-0.0522193
-0.0678837
-0.0917076
-0.123599
-0.161462
-0.200496
-0.233084
-0.249031
-0.236112
-0.1819
-0.0764344
0.0838361
0.292038
0.528205
0.759776
0.946844
1.05149
1.04894
0.936114
0.734285
0.483648
0.231917
0.0206765
-0.125258
-0.20181
-0.222242
-0.208887
-0.183954
-0.16294
-0.152374
-0.151612
-0.156536
-0.162723
-0.167112
-0.168599
-0.167317
-0.164134
-0.159953
-0.155632
-0.151785
-0.148794
-0.146767
-0.145471
-0.144553
-0.143572
-0.14222
-0.140463
-0.138352
-0.136115
-0.133912
-0.131971
-0.130362
-0.129195
-0.128607
-0.12861
-0.129204
-0.130126
-0.130931
-0.131016
-0.129861
-0.127121
-0.122982
-0.1179
-0.112741
-0.108258
-0.105032
-0.103117
-0.102228
-0.101772
-0.101217
-0.100256
-0.0989695
-0.0976321
-0.0967798
-0.0967043
-0.0975164
-0.0990565
-0.101047
-0.103195
-0.105312
-0.10718
-0.108669
-0.109484
-0.109367
-0.108106
-0.105684
-0.102457
-0.0989079
-0.0957581
-0.0934995
-0.0924339
-0.0924642
-0.0934074
-0.0948354
-0.0965986
-0.098461
-0.100358
-0.102226
-0.103957
-0.10533
-0.106205
-0.106609
-0.106595
-0.106387
-0.10624
-0.106124
-0.105878
-0.104852
-0.10218
-0.0968096
-0.0878664
-0.074873
-0.0580166
-0.0382472
-0.0170405
0.00382349
0.0227895
0.0387217
0.0512683
0.0605534
0.0672872
0.0721752
0.075912
0.0789572
0.0814826
0.0835615
0.0852158
0.0866227
0.0880853
0.0898907
0.0923107
0.0953104
0.0985635
0.101507
0.103513
0.104154
0.103331
0.101358
0.098856
0.0964351
0.0945444
0.0932739
0.0922863
0.0910295
0.0889577
0.0858322
0.0818101
0.0774276
0.0734898
0.0706517
0.0692155
0.0689371
0.0692647
0.0693924
0.0686751
0.0669314
0.0643372
0.0612918
0.0583538
0.0558993
0.0540264
0.0525893
0.0513313
0.0500015
0.0484069
0.0465019
0.0442333
0.0414818
0.038231
0.0343752
0.0299424
0.0251626
0.0202784
0.0157506
0.0119904
0.00920571
0.00750588
0.00675665
0.00657898
0.00666896
0.00673367
0.00654558
0.00605004
0.0053935
0.00460324
0.0037772
0.00289156
0.00185125
0.00065443
-0.000692625
-0.00206033
-0.00329754
-0.00418871
-0.00459129
-0.00450687
-0.00393669
-0.00308021
-0.00226319
-0.00171554
-0.00164889
-0.00218964
-0.00311418
-0.00418935
-0.00500515
-0.00519442
-0.00460348
-0.00333846
-0.00170256
-0.000153157
0.000816637
0.000931307
0.000102028
-0.00147097
-0.00335146
-0.00504665
-0.00593717
-0.00537015
-0.00283412
0.00190175
0.00880043
0.0173622
0.0267715
0.0360656
0.0444743
0.05153
0.0572616
0.0619579
0.0660303
0.0699168
0.0737974
0.0777071
0.0816242
0.0854187
0.0888404
0.0915477
0.0929949
0.0925775
0.0897912
0.0845012
0.0771097
0.068592
0.0603533
0.0538687
0.0504121
0.0504749
0.0535291
0.0580584
0.0617533
0.0623224
0.0580172
0.0481783
0.0334621
0.0157941
-0.0023747
-0.0186715
-0.031434
-0.0400932
-0.0451592
-0.0477942
-0.049295
-0.0507752
-0.0527088
-0.0550396
-0.0573047
-0.0589682
-0.0597177
-0.0594788
-0.0584772
-0.0570799
-0.0556218
-0.0542905
-0.0531486
-0.0522262
-0.0517081
-0.0522386
-0.0551156
-0.0620815
-0.0749878
-0.0952417
-0.123197
-0.157579
-0.195054
-0.23018
-0.255924
-0.263855
-0.244707
-0.189058
-0.0891012
0.058297
0.248059
0.463774
0.677534
0.853574
0.956536
0.961668
0.86348
0.679176
0.444738
0.204629
-0.000745692
-0.14575
-0.223824
-0.245245
-0.230099
-0.199763
-0.170203
-0.149598
-0.139204
-0.136558
-0.13831
-0.141995
-0.14637
-0.150893
-0.155156
-0.1584
-0.159861
-0.159005
-0.156049
-0.151773
-0.147453
-0.14416
-0.142459
-0.142132
-0.142358
-0.142097
-0.14074
-0.138173
-0.134837
-0.131481
-0.128632
-0.126465
-0.124842
-0.123384
-0.121809
-0.120196
-0.118711
-0.117643
-0.11709
-0.116882
-0.116754
-0.116549
-0.116218
-0.115886
-0.115626
-0.115468
-0.115142
-0.114268
-0.112439
-0.109387
-0.105277
-0.100527
-0.0957885
-0.0917309
-0.0889162
-0.08754
-0.0875134
-0.0883555
-0.0894663
-0.090188
-0.0901771
-0.0893374
-0.0878989
-0.0862761
-0.084917
-0.0841592
-0.0841779
-0.084884
-0.086151
-0.0876709
-0.0891087
-0.0902705
-0.0909376
-0.0911396
-0.0911248
-0.0914013
-0.09243
-0.0947439
-0.0984727
-0.103419
-0.10905
-0.11459
-0.119303
-0.122554
-0.123944
-0.123352
-0.120724
-0.115932
-0.108867
-0.0994401
-0.0876802
-0.0739691
-0.059037
-0.0437439
-0.028926
-0.0152491
-0.00300925
0.00797267
0.0179423
0.0273337
0.0364755
0.0455447
0.0545556
0.0635057
0.0722524
0.0805818
0.0881082
0.0943772
0.0989608
0.101586
0.102292
0.101483
0.0997776
0.097757
0.0958059
0.0939579
0.0919724
0.0895358
0.0865575
0.0831068
0.0796832
0.0768635
0.075145
0.0747766
0.0757113
0.0774794
0.0794783
0.0810012
0.0813935
0.0802224
0.0773249
0.0729744
0.0678099
0.0627252
0.0586219
0.0559663
0.0546883
0.053987
0.0527167
0.0498424
0.044914
0.0383622
0.0313438
0.0252707
0.0213133
0.0199621
0.0207629
0.0227853
0.0248982
0.0262188
0.0262828
0.0251102
0.0229351
0.0201477
0.0170449
0.0139428
0.0112693
0.00937452
0.00881766
0.00986533
0.0125206
0.0164259
0.0207319
0.0244343
0.0264686
0.0260378
0.0228311
0.0170698
0.00948809
0.00122379
-0.00645915
-0.0123232
-0.0154374
-0.0153933
-0.0124229
-0.00731301
-0.00126835
0.00447575
0.0088716
0.0111928
0.0113287
0.0095941
0.00652642
0.0029294
-0.000638509
-0.00375713
-0.00622581
-0.00812126
-0.00964753
-0.0109704
-0.0121063
-0.0127345
-0.0124046
-0.0106817
-0.00725437
-0.00212218
0.00439696
0.0117339
0.0192975
0.0267138
0.0338728
0.0408035
0.0476731
0.054516
0.0611847
0.0674903
0.0730942
0.0777257
0.0811916
0.0832209
0.0835044
0.0817654
0.0776786
0.071426
0.0636607
0.0556722
0.0490926
0.0452581
0.0447766
0.0471453
0.050677
0.0530574
0.0521762
0.0467261
0.0367703
0.023396
0.00842882
-0.00625647
-0.0192307
-0.0297279
-0.0375032
-0.0427235
-0.0458232
-0.047278
-0.0477628
-0.0479113
-0.0482683
-0.0492118
-0.0506607
-0.0525606
-0.054583
-0.0565964
-0.0585372
-0.0603882
-0.0621994
-0.063947
-0.0656117
-0.0670879
-0.0683396
-0.0692599
-0.0698041
-0.0698744
-0.0694628
-0.0688684
-0.0689067
-0.0707912
-0.0762363
-0.0870177
-0.104316
-0.128417
-0.157675
-0.188157
-0.213459
-0.225177
-0.213558
-0.168522
-0.081577
0.0520267
0.230305
0.441922
0.664987
0.868477
1.01744
1.08121
1.04245
0.903568
0.687869
0.434197
0.186465
-0.0180867
-0.15771
-0.229502
-0.246121
-0.228534
-0.197982
-0.169612
-0.150551
-0.141334
-0.138787
-0.139137
-0.139843
-0.139878
-0.139319
-0.138547
-0.137793
-0.137087
-0.13656
-0.136404
-0.136801
-0.137837
-0.139256
-0.140567
-0.141061
-0.140271
-0.138096
-0.134777
-0.130848
-0.126849
-0.123134
-0.119823
-0.116753
-0.113818
-0.110981
-0.108268
-0.105842
-0.103806
-0.102073
-0.10054
-0.0989744
-0.0972639
-0.0953564
-0.0934304
-0.0916783
-0.0903536
-0.0896
-0.0893893
-0.0897178
-0.090342
-0.0912177
-0.0922384
-0.093327
-0.0944596
-0.0955116
-0.0962188
-0.0963129
-0.0955711
-0.0939428
-0.0915939
-0.0888834
-0.0861676
-0.0837679
-0.08177
-0.0801097
-0.0786542
-0.0773005
-0.0760015
-0.0750034
-0.0745128
-0.0747786
-0.0759748
-0.0781745
-0.0812861
-0.0850004
-0.0891541
-0.0934571
-0.0977626
-0.102011
-0.106176
-0.110242
-0.114139
-0.117616
-0.120387
-0.122114
-0.12244
-0.121161
-0.118212
-0.113552
-0.107225
-0.0993791
-0.0901667
-0.0798713
-0.0690252
-0.0581483
-0.0478338
-0.0385422
-0.0302928
-0.0227641
-0.0153617
-0.00741261
0.00160618
0.011771
0.0228045
0.0340781
0.0448271
0.0544491
0.0625763
0.0691651
0.0745501
0.0792484
0.08383
0.0888851
0.0947862
0.101515
0.108875
0.116302
0.123195
0.129058
0.133567
0.136703
0.138603
0.139568
0.139768
0.139362
0.13844
0.137037
0.135249
0.13318
0.130867
0.128291
0.125494
0.122426
0.119208
0.116034
0.113096
0.110602
0.108692
0.107375
0.106679
0.106554
0.106848
0.107362
0.107837
0.107892
0.107285
0.105869
0.103616
0.100713
0.0973143
0.0936389
0.0898715
0.0861322
0.0824849
0.0790558
0.0758071
0.0727206
0.0695927
0.0663246
0.0628544
0.0592198
0.0555642
0.0520834
0.0489407
0.0462456
0.04397
0.042137
0.0406658
0.0396502
0.0391507
0.0391709
0.0396236
0.040205
0.0405545
0.0402539
0.0391635
0.0372734
0.0348464
0.0322544
0.0298323
0.0276489
0.0256868
0.0236514
0.021329
0.0186526
0.0158074
0.013225
0.0114357
0.0108661
0.01167
0.0135811
0.0160537
0.0183207
0.0197275
0.0198635
0.0186704
0.0164228
0.0135829
0.010506
0.00755977
0.00483395
0.0022765
-0.000146525
-0.0025
-0.0046744
-0.00650305
-0.00773863
-0.00825534
-0.00794813
-0.00693582
-0.00538039
-0.00353027
-0.00161072
0.000219503
0.00202131
0.00393718
0.00635268
0.0097724
0.0146353
0.021185
0.0293366
0.0386231
0.0483136
0.0575531
0.0657279
0.0725955
0.0783246
0.0834914
0.0886523
0.0942016
0.100055
0.105564
0.109782
0.111728
0.110792
0.10704
0.101122
0.0940429
0.086843
0.0803743
0.0750219
0.071143
0.0691351
0.0693931
0.0722889
0.07768
0.0845635
0.0911166
0.0950659
0.0942851
0.0876344
0.0751106
0.0580856
0.0386217
0.0190912
0.00141415
-0.0132094
-0.0242079
-0.0317198
-0.0361901
-0.0384207
-0.0393546
-0.0399464
-0.0409779
-0.0429207
-0.0458336
-0.049363
-0.0529281
-0.0558746
-0.0577486
-0.0583762
-0.0579104
-0.0566765
-0.0550949
-0.053528
-0.0521287
-0.0508879
-0.0496317
-0.0481292
-0.0463187
-0.0443394
-0.0426123
-0.0419849
-0.0436276
-0.0490555
-0.0598699
-0.0773745
-0.10214
-0.133272
-0.167776
-0.200066
-0.222176
-0.224535
-0.197036
-0.130572
-0.0184679
0.141111
0.342962
0.572881
0.806989
1.01366
1.15856
1.21245
1.1597
1.00434
0.771131
0.5
0.235802
0.0166625
-0.135044
-0.215869
-0.238467
-0.224346
-0.195557
-0.168509
-0.151328
-0.145037
-0.14663
-0.151987
-0.157909
-0.162651
-0.165877
-0.167851
-0.168937
-0.16952
-0.169746
-0.169676
-0.169278
-0.168373
-0.166773
-0.164464
-0.161507
-0.158127
-0.154681
-0.15136
-0.148312
-0.145547
-0.142948
-0.140472
-0.138144
-0.135934
-0.133872
-0.131937
-0.130176
-0.128518
-0.127035
-0.125806
-0.124899
-0.124324
-0.12401
-0.123728
-0.123317
-0.122642
-0.121631
-0.12048
-0.119359
-0.118403
-0.117751
-0.117465
-0.117394
-0.11739
-0.117145
-0.116435
-0.115205
-0.113597
-0.111952
-0.110762
-0.1105
-0.111355
-0.113094
-0.115284
-0.117226
-0.118377
-0.118349
-0.117229
-0.115428
-0.113569
-0.112303
-0.112162
-0.113318
-0.115573
-0.118463
-0.121373
-0.123774
-0.125277
-0.125749
-0.125341
-0.124502
-0.123582
-0.122851
-0.122389
-0.121927
-0.120997
-0.118916
-0.115053
-0.108997
-0.100448
-0.0896287
-0.077024
-0.0635672
-0.0502526
-0.0381837
-0.0281767
-0.0206529
-0.0154129
-0.0119178
-0.00919235
-0.00627056
-0.00235764
0.00305365
0.010202
0.0189496
0.0290997
0.040405
0.0524894
0.0648923
0.07711
0.0885295
0.0985601
0.106752
0.112877
0.117114
0.11975
0.12134
0.122337
0.123082
0.123673
0.124059
0.124091
0.123511
0.122132
0.119949
0.117019
0.113581
0.109939
0.106396
0.103246
0.100732
0.0989405
0.0978699
0.0974375
0.0974047
0.0974747
0.0973024
0.09663
0.0953814
0.093635
0.091568
0.0895054
0.0876808
0.0862126
0.0851069
0.0841576
0.083138
0.0816558
0.0794729
0.0764154
0.072476
0.0678919
0.0629682
0.0580838
0.0535702
0.0494926
0.0458735
0.0426757
0.0398957
0.0375921
0.0357987
0.0345295
0.0336698
0.0329422
0.0319852
0.0304677
0.0282524
0.0252971
0.0218049
0.0181495
0.0146081
0.0114496
0.00878283
0.00654964
0.00462602
0.00283485
0.00100613
-0.000992865
-0.0031242
-0.00531635
-0.00735724
-0.00899209
-0.0100561
-0.0104738
-0.0102652
-0.00968669
-0.00899432
-0.00848478
-0.00837143
-0.00866366
-0.00930052
-0.0101588
-0.0110302
-0.0117009
-0.0120874
-0.012206
-0.0121185
-0.0119492
-0.0119181
-0.0121889
-0.0129276
-0.0141802
-0.0159268
-0.0180281
-0.020207
-0.0220714
-0.0231815
-0.0229814
-0.0209325
-0.0165498
-0.00962887
-0.000288601
0.0108933
0.0229174
0.0347199
0.045261
0.0540481
0.0611247
0.0670019
0.0723859
0.0779139
0.08376
0.0895343
0.0944508
0.0975083
0.098009
0.0956314
0.090614
0.0837108
0.0759265
0.0683738
0.0620947
0.05793
0.0565423
0.0583125
0.0630228
0.0696581
0.0765598
0.0815485
0.082581
0.078334
0.0686466
0.0543705
0.0373326
0.0195064
0.00269163
-0.0119603
-0.0238253
-0.0327556
-0.0388936
-0.0424749
-0.0441262
-0.0444736
-0.0443352
-0.0444725
-0.0452953
-0.046971
-0.0493714
-0.0520189
-0.054476
-0.0564175
-0.0576246
-0.0579652
-0.0575341
-0.0563344
-0.0543298
-0.051578
-0.0482667
-0.0447009
-0.0416483
-0.0401317
-0.0414297
-0.0466546
-0.0563807
-0.0703368
-0.0875692
-0.106782
-0.126862
-0.147357
-0.16837
-0.189704
-0.209752
-0.22449
-0.227314
-0.209896
-0.163119
-0.0789803
0.0474632
0.216065
0.4196
0.642129
0.858981
1.03898
1.15008
1.16723
1.08045
0.899775
0.6547
0.387066
0.14001
-0.0532489
-0.176747
-0.233131
-0.23896
-0.216718
-0.186797
-0.162345
-0.148354
-0.143864
-0.145195
-0.148524
-0.151657
-0.153815
-0.155169
-0.156205
-0.157202
-0.158269
-0.159328
-0.160217
-0.160657
-0.160471
-0.159454
-0.157559
-0.155001
-0.151984
-0.148843
-0.145787
-0.142938
-0.140362
-0.138014
-0.135892
-0.133887
-0.132008
-0.130227
-0.12848
-0.126695
-0.124796
-0.122671
-0.12038
-0.11813
-0.116221
-0.115074
-0.114884
-0.115704
-0.117251
-0.119113
-0.120818
-0.122086
-0.122737
-0.122798
-0.122427
-0.121626
-0.120357
-0.118607
-0.116382
-0.113824
-0.111202
-0.108782
-0.106824
-0.105472
-0.104693
-0.104356
-0.104379
-0.104672
-0.105103
-0.10552
-0.105808
-0.105735
-0.105173
-0.104114
-0.10281
-0.101707
-0.101228
-0.101707
-0.103276
-0.105685
-0.108501
-0.111295
-0.113717
-0.115657
-0.117234
-0.118608
-0.11981
-0.120679
-0.120581
-0.118751
-0.114464
-0.107226
-0.0969307
-0.0840504
-0.0694907
-0.0544871
-0.040213
-0.027658
-0.0173636
-0.00948827
-0.00369787
0.000636635
0.00418413
0.00758241
0.0113989
0.0160113
0.0216919
0.0287051
0.0370781
0.0466527
0.0569857
0.0674532
0.0773792
0.0861494
0.0933901
0.0990054
0.103138
0.10607
0.108095
0.109489
0.110322
0.1107
0.110651
0.110163
0.109353
0.108374
0.107363
0.10633
0.105292
0.104091
0.102448
0.100133
0.096967
0.0930001
0.0884479
0.0836904
0.0792149
0.0754806
0.0727651
0.0712263
0.0707679
0.0711375
0.0719039
0.0726281
0.0728273
0.0722146
0.0707217
0.0684102
0.0655622
0.0626229
0.059876
0.0575505
0.0556192
0.0539591
0.0522706
0.0502792
0.0477999
0.0447359
0.0411133
0.0370325
0.0326884
0.028274
0.0239409
0.019802
0.0159426
0.0124055
0.00925376
0.00649284
0.00416297
0.00221911
0.000666429
-0.000571104
-0.00148183
-0.00199083
-0.00197381
-0.00138982
-0.000244394
0.00121781
0.00262107
0.00351133
0.00347513
0.00219538
-0.000418807
-0.00414384
-0.00844354
-0.0126795
-0.0161186
-0.0182375
-0.0187517
-0.0178357
-0.0159242
-0.0136131
-0.0114811
-0.00981463
-0.00865202
-0.00771519
-0.00664584
-0.00520719
-0.0033769
-0.00137074
0.000365145
0.00142269
0.00151955
0.000548344
-0.00134757
-0.00387093
-0.00663942
-0.009179
-0.0108716
-0.0112396
-0.00971683
-0.00590986
0.000254124
0.00848332
0.0179647
0.0277624
0.0368727
0.0446618
0.0510709
0.0565288
0.0620009
0.0683358
0.0760121
0.0848914
0.0940384
0.102038
0.107606
0.109875
0.10869
0.104606
0.0986226
0.0917844
0.0849149
0.0785156
0.0727778
0.0680151
0.0646402
0.063223
0.0641246
0.067123
0.0713069
0.0750127
0.0763435
0.0736255
0.0659313
0.0534431
0.0372652
0.0193864
0.00198234
-0.0130533
-0.024346
-0.0312972
-0.0341347
-0.033671
-0.0312102
-0.0280737
-0.0254147
-0.0240598
-0.024367
-0.0264093
-0.0299226
-0.0344942
-0.0395463
-0.044459
-0.0487426
-0.0520547
-0.0542478
-0.0553008
-0.0552859
-0.0542838
-0.0524443
-0.0501386
-0.0481314
-0.0478253
-0.0511385
-0.0600075
-0.0760513
-0.0998268
-0.130384
-0.164836
-0.19815
-0.223667
-0.233677
-0.219816
-0.174105
-0.0898237
0.0366306
0.203619
0.40177
0.612666
0.809471
0.960915
1.03797
1.02186
0.910601
0.721283
0.486557
0.246252
0.037031
-0.116549
-0.206279
-0.239302
-0.232601
-0.20597
-0.175618
-0.151363
-0.136573
-0.130179
-0.129246
-0.130963
-0.133472
-0.135906
-0.137902
-0.139268
-0.139746
-0.139228
-0.137606
-0.134983
-0.131627
-0.127979
-0.124483
-0.121666
-0.119932
-0.119517
-0.120452
-0.122515
-0.125271
-0.128154
-0.130656
-0.132257
-0.13279
-0.132162
-0.130489
-0.128052
-0.125125
-0.122037
-0.119131
-0.11657
-0.114448
-0.11264
-0.110898
-0.108883
-0.106325
-0.103193
-0.0996975
-0.0963069
-0.0936421
-0.0921699
-0.0922478
-0.093853
-0.0966998
-0.100273
-0.103959
-0.107295
-0.10996
-0.111823
-0.112905
-0.113332
-0.113118
-0.112194
-0.11039
-0.107658
-0.104043
-0.0999027
-0.095704
-0.0919068
-0.08897
-0.0870277
-0.0860151
-0.0857076
-0.0858665
-0.0863116
-0.0869822
-0.0881459
-0.0899722
-0.0927439
-0.0966035
-0.101541
-0.107391
-0.113757
-0.120097
-0.12576
-0.129987
-0.132012
-0.13119
-0.127052
-0.119656
-0.109415
-0.0972365
-0.0842185
-0.0714978
-0.0600105
-0.0501324
-0.0418967
-0.0349072
-0.0286708
-0.0227612
-0.0170475
-0.0116341
-0.00659961
-0.00209753
0.0020052
0.00599315
0.0102948
0.0153022
0.0212724
0.0282195
0.0359367
0.0440512
0.0521485
0.0598799
0.0669653
0.0732998
0.078832
0.0836089
0.0877447
0.0913483
0.0945424
0.0972663
0.0993933
0.100576
0.100386
0.0983824
0.0944853
0.0890662
0.0829925
0.0774207
0.073476
0.0718392
0.0724966
0.0748505
0.0778595
0.080522
0.0822188
0.0828883
0.0829257
0.082943
0.0833696
0.0841276
0.0846798
0.084261
0.0821431
0.0781797
0.0727118
0.0665878
0.0606824
0.055593
0.0512433
0.0471257
0.0425531
0.0370917
0.030862
0.0246278
0.0194966
0.0164404
0.0158351
0.0173667
0.0201306
0.0228127
0.0242189
0.0235466
0.0205468
0.0155688
0.00929497
0.00269248
-0.0032792
-0.00786402
-0.0105497
-0.0113823
-0.0108496
-0.00982438
-0.00914229
-0.00943901
-0.0108041
-0.0127707
-0.0146114
-0.015484
-0.014865
-0.0126485
-0.0092915
-0.00561017
-0.00240287
-0.000372578
-9.29313e-6
-0.00130502
-0.00394944
-0.00745963
-0.0110845
-0.0142636
-0.016579
-0.0179161
-0.0185453
-0.0188957
-0.0195063
-0.0207795
-0.02276
-0.0249795
-0.0266292
-0.0267485
-0.0244493
-0.019394
-0.0117936
-0.00246106
0.007484
0.0169567
0.0252532
0.0321436
0.0378504
0.042871
0.0477316
0.0527786
0.0581534
0.0637668
0.069321
0.0743456
0.0783141
0.0805932
0.0807526
0.0785991
0.0744092
0.0689228
0.0631638
0.0581233
0.0545514
0.0528223
0.0528824
0.0541992
0.0560186
0.0572015
0.0565653
0.0528399
0.0450085
0.0327536
0.0165549
-0.0021195
-0.0210572
-0.0378197
-0.0504658
-0.0578784
-0.0602378
-0.0585586
-0.0545327
-0.0498154
-0.0457124
-0.0428036
-0.0412243
-0.0408009
-0.0413534
-0.0428296
-0.0452703
-0.0486704
-0.0528843
-0.0573634
-0.0615521
-0.0647826
-0.0665713
-0.0665827
-0.0647655
-0.0614401
-0.0571112
-0.0526802
-0.0494941
-0.0492634
-0.0539664
-0.0654911
-0.084993
-0.112403
-0.145596
-0.179845
-0.207966
-0.22066
-0.207161
-0.15662
-0.0603334
0.085386
0.276224
0.497342
0.722884
0.91873
1.04926
1.08635
1.01781
0.852641
0.619796
0.361011
0.11946
-0.0713455
-0.194885
-0.252942
-0.260878
-0.240153
-0.210532
-0.18506
-0.169028
-0.161843
-0.15995
-0.159587
-0.158287
-0.155396
-0.151519
-0.147773
-0.145208
-0.144564
-0.145877
-0.148488
-0.151366
-0.153388
-0.153765
-0.152412
-0.149976
-0.147498
-0.145927
-0.145819
-0.147052
-0.148913
-0.150522
-0.151133
-0.15032
-0.148128
-0.144794
-0.140759
-0.136384
-0.131919
-0.127602
-0.123625
-0.120218
-0.117555
-0.115752
-0.114761
-0.114413
-0.114519
-0.114819
-0.115268
-0.115858
-0.116691
-0.117835
-0.119241
-0.120743
-0.122022
-0.122703
-0.122439
-0.121128
-0.118834
-0.115843
-0.112542
-0.1094
-0.106733
-0.104763
-0.103551
-0.102953
-0.102797
-0.102732
-0.102426
-0.101597
-0.100075
-0.0979571
-0.0955144
-0.0932225
-0.0915154
-0.0907684
-0.0911804
-0.0927731
-0.0954838
-0.0992655
-0.104054
-0.10985
-0.116593
-0.123992
-0.131603
-0.138717
-0.144424
-0.147791
-0.147905
-0.144193
-0.136455
-0.125151
-0.111166
-0.0959212
-0.0808603
-0.0672043
-0.0555526
-0.04582
-0.0372297
-0.0286837
-0.0191803
-0.00800119
0.00495488
0.0193754
0.0346251
0.0499973
0.0648134
0.0785193
0.0906912
0.10095
0.109153
0.115365
0.119837
0.12303
0.12539
0.1274
0.129437
0.131712
0.134292
0.137152
0.140154
0.14313
0.145863
0.148155
0.14988
0.151026
0.15165
0.151801
0.151643
0.151159
0.150294
0.148979
0.147104
0.14458
0.141328
0.137377
0.132834
0.127826
0.122485
0.117006
0.111616
0.106506
0.10184
0.0978356
0.0945903
0.0922283
0.0908114
0.0902365
0.0902507
0.0904997
0.0904871
0.0897076
0.0879693
0.085246
0.0817514
0.0779724
0.0743993
0.0714002
0.06911
0.0674016
0.0659825
0.0643458
0.0620363
0.0586797
0.0542355
0.0490262
0.0435442
0.0385488
0.0347645
0.0325625
0.0320241
0.0327532
0.0341203
0.0353273
0.035767
0.0351153
0.0334437
0.0311235
0.0286177
0.0264031
0.0247911
0.0238294
0.0234509
0.0234074
0.023433
0.0232523
0.0225344
0.0210545
0.0186486
0.0154443
0.0117306
0.00794149
0.00456637
0.00194902
0.000143094
-0.000954488
-0.00156317
-0.00163385
-0.00107033
0.000639389
0.00395259
0.0091858
0.016212
0.024539
0.0332289
0.0414295
0.0485079
0.0542598
0.0588714
0.0627593
0.0663684
0.0697724
0.072744
0.0747287
0.0752478
0.0739993
0.0711717
0.0673135
0.0633511
0.0600414
0.0578485
0.0568515
0.0567759
0.0572552
0.0582989
0.0600509
0.0629052
0.0669399
0.0715729
0.0754962
0.076972
0.0742727
0.0662365
0.0528224
0.0351614
0.0152805
-0.00449393
-0.0220889
-0.0361753
-0.0462199
-0.0526088
-0.0561561
-0.0578838
-0.0587134
-0.0592911
-0.0599893
-0.0608644
-0.0618634
-0.0627659
-0.0633232
-0.0634004
-0.0627141
-0.0611055
-0.0585432
-0.0551282
-0.0512892
-0.047853
-0.0461881
-0.0481721
-0.0558518
-0.0710141
-0.0944793
-0.125286
-0.159956
-0.192683
-0.216092
-0.222703
-0.206662
-0.164757
-0.0963105
-0.00173539
0.118994
0.266523
0.440417
0.635711
0.838922
1.02629
1.16625
1.22686
1.18623
1.04156
0.812648
0.538061
0.264411
0.0335826
-0.128518
-0.216441
-0.242719
-0.230169
-0.202553
-0.177366
-0.163075
-0.160235
-0.165129
-0.173098
-0.180544
-0.185717
-0.188271
-0.188556
-0.187036
-0.184145
-0.180434
-0.176495
-0.17295
-0.170331
-0.168873
-0.168572
-0.169165
-0.170193
-0.171075
-0.171433
-0.170908
-0.169439
-0.167169
-0.164302
-0.161229
-0.158348
-0.155917
-0.154286
-0.153468
-0.153363
-0.153551
-0.153525
-0.152742
-0.150919
-0.148078
-0.144555
-0.140958
-0.137847
-0.135637
-0.134389
-0.133841
-0.133606
-0.133224
-0.13247
-0.131316
-0.129926
-0.128558
-0.127461
-0.126728
-0.126471
-0.126653
-0.127189
-0.128019
-0.128947
-0.129779
-0.130284
-0.130333
-0.129912
-0.129187
-0.128475
-0.12801
-0.128048
-0.128565
-0.129466
-0.13047
-0.131371
-0.132044
-0.132557
-0.133149
-0.1341
-0.135651
-0.137873
-0.140626
-0.143596
-0.146326
-0.148356
-0.14925
-0.148638
-0.146222
-0.141665
-0.134726
-0.125176
-0.112965
-0.0982651
-0.0815302
-0.0633894
-0.0447424
-0.0264356
-0.0091288
0.00686631
0.0214071
0.034694
0.0468879
0.0581602
0.0685354
0.0779695
0.0863706
0.0937571
0.100153
0.105664
0.11029
0.114027
0.116689
0.118019
0.117909
0.116395
0.113733
0.110354
0.106815
0.103663
0.10128
0.0997444
0.0990164
0.099031
0.0995243
0.100307
0.101128
0.10177
0.101989
0.101597
0.100523
0.0988182
0.0965796
0.0938804
0.0908414
0.0875723
0.0842804
0.0811597
0.0785032
0.0765735
0.0754357
0.0749653
0.0748156
0.0745809
0.0739556
0.0727549
0.0709369
0.0687355
0.0663523
0.0638618
0.0613604
0.0587054
0.0558641
0.0527225
0.0494105
0.0460281
0.042861
0.0399942
0.0374732
0.0351457
0.0327013
0.0298736
0.02643
0.0223965
0.017988
0.013563
0.00949751
0.00606759
0.00341173
0.00155896
0.000422569
-9.5376e-5
-3.18727e-5
0.000530624
0.00140835
0.00237784
0.00316974
0.00360465
0.0034809
0.00286388
0.00170742
0.000158078
-0.00178986
-0.00392686
-0.00612066
-0.00812091
-0.00974787
-0.0109648
-0.0118119
-0.0125137
-0.0133538
-0.0144837
-0.0158736
-0.017298
-0.018419
-0.0189417
-0.0186483
-0.0174398
-0.0154214
-0.0127728
-0.00959685
-0.00585778
-0.00148397
0.00379008
0.0101892
0.0177641
0.0263949
0.0356994
0.0452569
0.0545524
0.0632775
0.071366
0.0789612
0.0861481
0.092808
0.0984823
0.102467
0.104001
0.102597
0.0982253
0.0914896
0.0834219
0.0752532
0.0681647
0.0632355
0.0612768
0.0627885
0.0676709
0.0752198
0.0837411
0.0910714
0.0949512
0.0937002
0.0867462
0.0746287
0.0588335
0.0413952
0.0240187
0.00802898
-0.0058805
-0.0173701
-0.0263097
-0.032727
-0.0368287
-0.0391404
-0.0404401
-0.0416396
-0.0434209
-0.0462093
-0.0498757
-0.0539815
-0.0579673
-0.0612677
-0.0635753
-0.0647391
-0.0647085
-0.0633855
-0.060762
-0.0569556
-0.0524222
-0.0482007
-0.0459348
-0.0479637
-0.0567405
-0.074244
-0.101134
-0.13614
-0.17523
-0.211412
-0.235279
-0.235844
-0.20188
-0.123473
0.0058554
0.186682
0.410882
0.659945
0.904958
1.10987
1.23822
1.26221
1.17115
0.976322
0.70976
0.416882
0.144518
-0.0706146
-0.209974
-0.274753
-0.281484
-0.254138
-0.215582
-0.181868
-0.160401
-0.151496
-0.151598
-0.1562
-0.161858
-0.166748
-0.170459
-0.173061
-0.174758
-0.175655
-0.175814
-0.175356
-0.174344
-0.172964
-0.171207
-0.169068
-0.166365
-0.163126
-0.15945
-0.155626
-0.152052
-0.1491
-0.14687
-0.14521
-0.143856
-0.142415
-0.140733
-0.138843
-0.136961
-0.135414
-0.134389
-0.13396
-0.133922
-0.134026
-0.133907
-0.13328
-0.13185
-0.129571
-0.126506
-0.122867
-0.119093
-0.115604
-0.112896
-0.111235
-0.110695
-0.111093
-0.112095
-0.11334
-0.114488
-0.115445
-0.116129
-0.116596
-0.116706
-0.116424
-0.115652
-0.11446
-0.113081
-0.111875
-0.111209
-0.111305
-0.112056
-0.113105
-0.11401
-0.114341
-0.113913
-0.112873
-0.111642
-0.110804
-0.110865
-0.11217
-0.114676
-0.118005
-0.12157
-0.124674
-0.126888
-0.127922
-0.127767
-0.126364
-0.123606
-0.118948
-0.111754
-0.101374
-0.0876212
-0.0709636
-0.0526136
-0.0342105
-0.0174752
-0.00365396
0.0067053
0.0138185
0.0184061
0.021341
0.0234664
0.0254647
0.0278485
0.0310291
0.0353748
0.0410973
0.0482139
0.0565233
0.0655829
0.0748577
0.0837856
0.091971
0.0991767
0.105177
0.109925
0.113389
0.115658
0.116897
0.117291
0.117145
0.116602
0.115805
0.114728
0.113284
0.111267
0.108632
0.105356
0.101581
0.0975077
0.0934532
0.0896805
0.086442
0.0838908
0.0819838
0.0806704
0.0797094
0.0788912
0.0779592
0.0768766
0.0756878
0.0745473
0.0736366
0.0729103
0.0721833
0.0712314
0.0696989
0.0675093
0.0646849
0.0615206
0.0582382
0.055056
0.0519517
0.0488257
0.0454834
0.0419026
0.0381253
0.0342919
0.0304513
0.0265176
0.0224325
0.0180986
0.0136044
0.00927216
0.00557715
0.00295403
0.00163895
0.00159305
0.00229198
0.0032119
0.00373957
0.00347679
0.00228388
0.000374024
-0.00189554
-0.00410809
-0.00583589
-0.00685917
-0.0072095
-0.0071392
-0.00697442
-0.00713604
-0.00790645
-0.00943753
-0.0117075
-0.0144803
-0.0174922
-0.02042
-0.0229604
-0.0248623
-0.0258709
-0.0258631
-0.0247491
-0.0225842
-0.0194935
-0.0158974
-0.0122565
-0.00912516
-0.00697422
-0.00605297
-0.00624014
-0.00722255
-0.00852514
-0.00975462
-0.0106062
-0.0110316
-0.0110603
-0.0106834
-0.00960615
-0.00739999
-0.00358744
0.00214025
0.00975477
0.0187918
0.0285497
0.0383648
0.0477544
0.0567207
0.0654528
0.074109
0.0826727
0.0906567
0.0972128
0.101451
0.102822
0.101106
0.0966644
0.0902843
0.083025
0.076026
0.0703922
0.0670363
0.0664412
0.0683701
0.0717156
0.0747459
0.0755093
0.0723106
0.0643109
0.0517194
0.0358048
0.0183705
0.00135845
-0.0137926
-0.0261834
-0.0355086
-0.0420179
-0.046135
-0.0483691
-0.0493439
-0.0496851
-0.0498931
-0.0503528
-0.0512561
-0.0526089
-0.0542042
-0.0557319
-0.0568329
-0.0572279
-0.0566859
-0.0551657
-0.0527408
-0.0496038
-0.0460742
-0.0426187
-0.0396326
-0.0376894
-0.0375526
-0.0404695
-0.048054
-0.0620788
-0.0839556
-0.113935
-0.150263
-0.188279
-0.220332
-0.236281
-0.22434
-0.17265
-0.0717098
0.0823361
0.284263
0.517008
0.751355
0.949508
1.07318
1.094
1.00289
0.814608
0.565007
0.301229
0.0684217
-0.102287
-0.200181
-0.233723
-0.223737
-0.19398
-0.163445
-0.142445
-0.133037
-0.132415
-0.136241
-0.141009
-0.144948
-0.147741
-0.149769
-0.151459
-0.152918
-0.154052
-0.154663
-0.154468
-0.15331
-0.15121
-0.148363
-0.145121
-0.141887
-0.138891
-0.136247
-0.133914
-0.131742
-0.12963
-0.127609
-0.125814
-0.124422
-0.123556
-0.123266
-0.12343
-0.123875
-0.124346
-0.124554
-0.124272
-0.123233
-0.121264
-0.118258
-0.114296
-0.1096
-0.104698
-0.1001
-0.0963391
-0.0936684
-0.0920722
-0.091306
-0.0910361
-0.0910027
-0.0910299
-0.0912263
-0.0917978
-0.092856
-0.0943807
-0.0962033
-0.0980072
-0.0994423
-0.100242
-0.100232
-0.0993938
-0.0977978
-0.0956009
-0.0929811
-0.090125
-0.0872455
-0.0845244
-0.0821736
-0.0803578
-0.0793078
-0.0790534
-0.0796608
-0.0810557
-0.083144
-0.0858281
-0.0890188
-0.0926815
-0.0967099
-0.100798
-0.10443
-0.106933
-0.107555
-0.105707
-0.101043
-0.0935592
-0.0835737
-0.0717192
-0.0586588
-0.0451194
-0.0318039
-0.0190897
-0.00712252
0.00419394
0.0150074
0.0255071
0.03571
0.0454355
0.0543935
0.0623469
0.0690961
0.0746944
0.0792259
0.0828583
0.0858786
0.0884997
0.0910105
0.0935615
0.0962292
0.0988599
0.101106
0.102575
0.102933
0.102122
0.100215
0.0975894
0.0947203
0.0919411
0.0895419
0.0876129
0.0862015
0.0852272
0.0846331
0.0843522
0.0843236
0.0843614
0.0843353
0.0839959
0.0830888
0.081359
0.0785665
0.0746663
0.0698163
0.0645328
0.0594814
0.055395
0.0527764
0.0517024
0.0517921
0.0524113
0.0529011
0.052808
0.051956
0.0505414
0.0486941
0.0465274
0.0439579
0.0409578
0.0375285
0.0338539
0.0303217
0.0272916
0.0249297
0.0231315
0.021622
0.0199209
0.017688
0.0147596
0.0112013
0.00722533
0.00318081
-0.000537927
-0.00357673
-0.00561911
-0.00639838
-0.00596342
-0.00453083
-0.00259904
-0.000810338
0.000105965
-0.00026167
-0.00218488
-0.00554973
-0.00996553
-0.0147478
-0.0191173
-0.0224038
-0.0242235
-0.024543
-0.0237229
-0.0224342
-0.0213481
-0.0209109
-0.0211953
-0.021947
-0.0226981
-0.0229864
-0.0225483
-0.0212037
-0.0189624
-0.0159681
-0.0123879
-0.00860963
-0.00496913
-0.00179377
0.000896396
0.00326046
0.00583767
0.0092391
0.0138545
0.0196696
0.0261971
0.0325659
0.0379915
0.041962
0.0444417
0.0459893
0.0475095
0.0499669
0.0540234
0.0597558
0.0666478
0.0737737
0.0799967
0.0843054
0.0860258
0.0848863
0.0811067
0.0753568
0.0685865
0.06203
0.05703
0.0546518
0.0553662
0.0585688
0.0626079
0.0651213
0.0636856
0.0566718
0.0437392
0.0260951
0.00603909
-0.0137682
-0.0310258
-0.0443418
-0.0534213
-0.0587357
-0.0612681
-0.0622084
-0.0625082
-0.0628492
-0.0635533
-0.0645019
-0.0654123
-0.0658988
-0.0658084
-0.065236
-0.0646788
-0.0646211
-0.0654659
-0.0672008
-0.0692244
-0.0707058
-0.0709675
-0.0696521
-0.0672362
-0.0649416
-0.0643134
-0.0668819
-0.0735717
-0.0847043
-0.100085
-0.119366
-0.14215
-0.167913
-0.195344
-0.221505
-0.241397
-0.247932
-0.23214
-0.184275
-0.0955938
0.0388907
0.217531
0.429118
0.651814
0.854837
1.00364
1.06826
1.03209
0.897648
0.687591
0.439202
0.194475
-0.0107422
-0.155022
-0.234138
-0.258423
-0.246363
-0.217558
-0.18702
-0.163138
-0.148408
-0.141606
-0.140088
-0.141508
-0.144397
-0.148038
-0.151966
-0.155784
-0.159016
-0.161281
-0.162326
-0.162001
-0.160269
-0.157248
-0.152936
-0.147467
-0.141096
-0.134329
-0.127928
-0.122608
-0.118969
-0.117169
-0.116919
-0.11766
-0.118751
-0.119762
-0.12059
-0.121267
-0.12183
-0.122079
-0.121693
-0.120247
-0.117589
-0.114034
-0.110127
-0.106615
-0.104049
-0.102577
-0.101918
-0.101497
-0.100693
-0.0990746
-0.0964782
-0.0931039
-0.0893572
-0.0858304
-0.0830852
-0.0815796
-0.0815969
-0.0829466
-0.0851683
-0.087513
-0.0891399
-0.0895493
-0.088654
-0.086908
-0.0849117
-0.0834906
-0.0832151
-0.0843066
-0.0867374
-0.0902083
-0.0942735
-0.0985367
-0.10255
-0.105788
-0.10792
-0.108704
-0.108339
-0.107367
-0.106521
-0.106625
-0.108261
-0.111607
-0.116314
-0.121612
-0.126478
-0.129895
-0.131161
-0.129997
-0.126522
-0.121078
-0.114173
-0.106107
-0.0971001
-0.0871848
-0.0763471
-0.0646668
-0.0523261
-0.039528
-0.0263474
-0.0127733
0.00136781
0.0160958
0.0313481
0.0466587
0.061269
0.0742122
0.0846623
0.0922144
0.0969914
0.0997412
0.101459
0.103155
0.105432
0.108408
0.111703
0.114731
0.116989
0.118217
0.118542
0.118309
0.117793
0.117019
0.115759
0.113718
0.11068
0.10674
0.102367
0.0982889
0.0950674
0.0929856
0.0918626
0.0911374
0.0901736
0.0885386
0.0862261
0.0835958
0.08119
0.0796182
0.0792249
0.0799302
0.0812359
0.0824086
0.0825457
0.0808915
0.0769469
0.0705795
0.0621262
0.0523952
0.0424707
0.0335783
0.0268057
0.0228372
0.0217914
0.0231529
0.0258554
0.0286744
0.0305546
0.0310632
0.0302716
0.0286848
0.0268535
0.0250306
0.0232215
0.0210575
0.0182011
0.0146231
0.0107384
0.00710917
0.00428744
0.00244403
0.00128414
0.000305062
-0.000915693
-0.00245019
-0.003958
-0.00498588
-0.00526466
-0.00491081
-0.00448879
-0.00469429
-0.00584011
-0.00772225
-0.00975226
-0.011295
-0.0120486
-0.012214
-0.012408
-0.0132746
-0.0151462
-0.0177192
-0.0202767
-0.0219862
-0.022393
-0.0215411
-0.0199356
-0.018387
-0.0176211
-0.0180535
-0.0197103
-0.0222801
-0.0253223
-0.0281624
-0.0302161
-0.0309507
-0.0298039
-0.0261976
-0.019835
-0.0107295
0.000579865
0.0129897
0.0250223
0.0350193
0.0417708
0.0448164
0.0447851
0.0430724
0.0416008
0.0419737
0.0450718
0.050744
0.0579074
0.0651256
0.0710341
0.0748329
0.076354
0.0759061
0.0739997
0.070895
0.0668828
0.0623655
0.0579449
0.0544601
0.0527534
0.0531444
0.055103
0.0572671
0.0576743
0.0545681
0.0469558
0.0350138
0.0199817
0.00364671
-0.0122342
-0.0264019
-0.038191
-0.0474587
-0.0542506
-0.0586616
-0.0607988
-0.0607783
-0.0589425
-0.0559258
-0.0525514
-0.0495517
-0.0474885
-0.0466527
-0.0468635
-0.0478657
-0.0491855
-0.0504599
-0.0514951
-0.0522951
-0.0530742
-0.0540526
-0.0554499
-0.0575402
-0.0609372
-0.0665379
-0.0756697
-0.0896447
-0.109619
-0.135712
-0.16663
-0.199384
-0.229389
-0.251392
-0.260496
-0.253421
-0.229107
-0.188643
-0.134652
-0.0696679
0.00550189
0.0931676
0.19832
0.326773
0.481488
0.658472
0.844029
1.01432
1.13911
1.18917
1.14525
1.00554
0.788176
0.527451
0.265128
0.0391323
-0.125642
-0.2218
-0.258082
-0.253307
-0.228626
-0.20093
-0.179856
-0.168316
-0.164622
-0.165328
-0.167327
-0.168686
-0.168606
-0.167107
-0.164403
-0.160819
-0.156805
-0.15296
-0.149894
-0.147914
-0.146911
-0.146363
-0.145708
-0.144459
-0.142614
-0.140559
-0.138928
-0.138263
-0.138798
-0.140272
-0.14221
-0.14421
-0.146227
-0.148476
-0.151251
-0.1545
-0.157519
-0.159087
-0.157996
-0.153627
-0.146289
-0.137326
-0.128633
-0.121782
-0.117609
-0.115966
-0.116051
-0.116969
-0.118197
-0.119881
-0.122396
-0.125968
-0.130349
-0.134844
-0.138551
-0.140809
-0.141312
-0.140043
-0.137107
-0.132486
-0.126362
-0.119194
-0.11196
-0.106147
-0.103181
-0.103754
-0.107605
-0.113555
-0.120005
-0.125844
-0.130766
-0.135286
-0.140312
-0.146424
-0.153509
-0.160755
-0.167158
-0.171964
-0.17505
-0.17675
-0.177456
-0.177414
-0.176397
-0.173843
-0.169094
-0.162123
-0.153306
-0.143785
-0.134951
-0.127905
-0.123076
-0.120071
-0.117767
-0.114743
-0.109799
-0.10218
-0.0918514
-0.079263
-0.0648861
-0.0491466
-0.0323533
-0.0149035
0.00258195
0.019057
0.033577
0.0455004
0.0548655
0.0626183
0.0702718
0.079264
0.0902646
0.103161
0.116769
0.129624
0.140375
0.148246
0.153248
0.155888
0.156819
0.156689
0.15577
0.154043
0.151382
0.147624
0.142607
0.136236
0.128773
0.12093
0.113881
0.109174
0.108116
0.111399
0.118586
0.128124
0.137684
0.144737
0.147438
0.145112
0.138533
0.129675
0.121017
0.114768
0.111883
0.111914
0.113027
0.112773
0.109337
0.102078
0.0918462
0.0805942
0.0704092
0.0627525
0.0579587
0.0554743
0.0545336
0.0547059
0.0561728
0.0593013
0.064206
0.0703377
0.0765091
0.0813632
0.0838741
0.0837338
0.0814009
0.0776977
0.0732744
0.068293
0.0624905
0.0553768
0.0468557
0.0374871
0.0282941
0.0206474
0.0157012
0.0138649
0.0148735
0.017597
0.0206671
0.0229121
0.0238685
0.0238679
0.0237982
0.0246106
0.0267048
0.0296576
0.0322974
0.0331862
0.0312088
0.0260686
0.0184444
0.00982753
0.00210876
-0.00315708
-0.00534595
-0.00487637
-0.00305267
-0.00152886
-0.00169709
-0.00410333
-0.00823983
-0.0127212
-0.0161816
-0.0177005
-0.0173511
-0.0160864
-0.0151733
-0.0154611
-0.0169265
-0.0188003
-0.0198027
-0.0188091
-0.0153443
-0.00971497
-0.00277304
0.00457109
0.0117378
0.0187513
0.0260277
0.0341301
0.043377
0.0536015
0.0642654
0.0746511
0.0842206
0.0925394
0.0994204
0.104549
0.107719
0.108548
0.106823
0.102787
0.0970768
0.0906741
0.0843338
0.0785924
0.0735081
0.068973
0.0650133
0.0619919
0.0603404
0.0601839
0.0610642
0.0618543
0.0610121
0.0572102
0.0499949
0.0399531
0.0286134
0.017566
0.00797348
6.62558e-5
-0.00672692
-0.0132796
-0.0204264
-0.0284025
-0.0368983
-0.0452157
-0.0526203
-0.058658
-0.0629961
-0.0655668
-0.0665069
-0.0660167
-0.0643918
-0.0621833
-0.0599905
-0.0584527
-0.0581606
-0.0593909
-0.0621123
-0.0659281
-0.0701521
-0.0738985
-0.0764635
-0.0774148
-0.0769121
-0.0756556
-0.074942
-0.0764015
-0.0817178
-0.0922262
-0.108675
-0.130839
-0.157141
-0.184219
-0.206611
-0.217037
-0.207056
-0.168577
-0.0953592
0.0158183
0.164163
0.344592
0.547851
0.760198
0.963631
1.136
1.2527
1.29086
1.23542
1.08524
0.856428
0.58087
0.299294
0.0513797
-0.134379
-0.246732
-0.29201
-0.289096
-0.26117
-0.228065
-0.201913
-0.186734
-0.180888
-0.180374
-0.1816
-0.182576
-0.182954
-0.183213
-0.183786
-0.184695
-0.185621
-0.186185
-0.186188
-0.185589
-0.184659
-0.183651
-0.182742
-0.181836
-0.180603
-0.178723
-0.175983
-0.172545
-0.168805
-0.16537
-0.16272
-0.161124
-0.160517
-0.160488
-0.16047
-0.159947
-0.158574
-0.156374
-0.15363
-0.150917
-0.148898
-0.148113
-0.148891
-0.151204
-0.154605
-0.158463
-0.161974
-0.164441
-0.16535
-0.164542
-0.162146
-0.158591
-0.154559
-0.150621
-0.147357
-0.144992
-0.143616
-0.142936
-0.142605
-0.14229
-0.141692
-0.140829
-0.139765
-0.138791
-0.138288
-0.138539
-0.139853
-0.142311
-0.145704
-0.149527
-0.153072
-0.155651
-0.156891
-0.156855
-0.156091
-0.155457
-0.155884
-0.157928
-0.161651
-0.16664
-0.17202
-0.176823
-0.180073
-0.181117
-0.179536
-0.175175
-0.168192
-0.158776
-0.14746
-0.134853
-0.121587
-0.108376
-0.0958077
-0.0843381
-0.0741244
-0.0650567
-0.0567904
-0.0488
-0.0405206
-0.0314854
-0.0213832
-0.0101197
0.00228874
0.01558
0.029524
0.0438821
0.0583794
0.0727504
0.0866689
0.0998095
0.111819
0.122476
0.13163
0.139248
0.145413
0.150343
0.154112
0.156752
0.158221
0.158519
0.157647
0.155876
0.153589
0.151184
0.14907
0.147451
0.146328
0.1456
0.145133
0.144905
0.144932
0.14518
0.145558
0.145827
0.145692
0.144875
0.143203
0.140768
0.13795
0.135221
0.13317
0.13216
0.132308
0.133339
0.134537
0.134978
0.133919
0.130828
0.125784
0.119344
0.112375
0.105821
0.100337
0.0962371
0.0934537
0.0916723
0.0904806
0.0895436
0.0885858
0.0874315
0.0859648
0.0841255
0.0820425
0.0797993
0.0775282
0.0753364
0.0732
0.0710044
0.0686141
0.0659394
0.0631016
0.0603798
0.0579818
0.0561104
0.0546334
0.0533199
0.0517984
0.0497245
0.0469746
0.0435599
0.0396896
0.03577
0.0322958
0.0297259
0.0283896
0.0284598
0.0296971
0.0315723
0.0333361
0.0343177
0.0341031
0.0326105
0.0302086
0.027413
0.0248246
0.0228698
0.0217463
0.0214125
0.0216595
0.0220911
0.0223066
0.0218987
0.0205677
0.0183544
0.0155341
0.0127062
0.01075
0.0103634
0.0120391
0.0159331
0.0218527
0.0292424
0.0375084
0.0461063
0.0545435
0.0625242
0.0699356
0.076868
0.0835277
0.0902594
0.0972583
0.104503
0.111675
0.118022
0.122844
0.125497
0.125656
0.123415
0.119353
0.114082
0.108447
0.103183
0.0988363
0.0959443
0.094796
0.0954241
0.0973622
0.0996734
0.101066
0.10005
0.0955782
0.087215
0.0752877
0.0608339
0.0452781
0.0300572
0.0163688
0.00501888
-0.00367244
-0.00963668
-0.0132188
-0.0150447
-0.0159912
-0.0168785
-0.0183561
-0.0205382
-0.0232348
-0.0259661
-0.0282238
-0.0299125
-0.0311259
-0.032342
-0.0339758
-0.0362557
-0.0391153
-0.0420948
-0.0446178
-0.0460832
-0.04612
-0.0446695
-0.0421183
-0.0394911
-0.0383516
-0.0409554
-0.0496585
-0.0664813
-0.0923534
-0.126242
-0.164254
-0.199415
-0.221964
-0.220525
-0.183223
-0.0995956
0.0368798
0.226159
0.458664
0.713785
0.960173
1.15985
1.27574
1.28139
1.16957
0.956431
0.678804
0.384959
0.121694
-0.0774112
-0.199
-0.249553
-0.249361
-0.223273
-0.19244
-0.169596
-0.158688
-0.157794
-0.162668
-0.169313
-0.175375
-0.180093
-0.183568
-0.186047
-0.187642
-0.188338
-0.188093
-0.186935
-0.184918
-0.182135
-0.178612
-0.174591
-0.170299
-0.166103
-0.162441
-0.159765
-0.158405
-0.158487
-0.159861
-0.162077
-0.164438
-0.166124
-0.166495
-0.165216
-0.162333
-0.158342
-0.154097
-0.150522
-0.148345
-0.147909
-0.148992
-0.150959
-0.152869
-0.153795
-0.153114
-0.150544
-0.146419
-0.141322
-0.136123
-0.131603
-0.128367
-0.126576
-0.126078
-0.126417
-0.126963
-0.127232
-0.12694
-0.126038
-0.124689
-0.122965
-0.120988
-0.118857
-0.116681
-0.114713
-0.113312
-0.112931
-0.113877
-0.11608
-0.119128
-0.122323
-0.124818
-0.126085
-0.125857
-0.124277
-0.121781
-0.119039
-0.116653
-0.1151
-0.114654
-0.115278
-0.116762
-0.118665
-0.12032
-0.120891
-0.119539
-0.115551
-0.108583
-0.0986274
-0.0861787
-0.0721452
-0.0576375
-0.0437731
-0.0314007
-0.0209216
-0.0121824
-0.00463224
0.00252652
0.0101099
0.0186835
0.0284044
0.0390788
0.0502311
0.0613014
0.0716995
0.0810998
0.0892588
0.0962386
0.102213
0.107395
0.111881
0.115708
0.118756
0.120851
0.121798
0.121497
0.120058
0.117649
0.114587
0.11126
0.10797
0.104948
0.102378
0.100283
0.0987099
0.0975478
0.0967718
0.096329
0.0961388
0.0960659
0.0959886
0.0956751
0.0949843
0.0937173
0.0919277
0.0896176
0.0869584
0.0842282
0.0815332
0.0789461
0.0763543
0.0735767
0.0704083
0.0667678
0.0626863
0.0582512
0.0536245
0.048921
0.0441944
0.0395472
0.03498
0.0306407
0.026636
0.0231048
0.0200519
0.0175178
0.0153143
0.0132982
0.0112903
0.00917605
0.00676821
0.00409109
0.0012218
-0.00173942
-0.0045786
-0.0071608
-0.00935544
-0.0111533
-0.0126175
-0.0139
-0.0151192
-0.016458
-0.0180163
-0.0198253
-0.02182
-0.0239384
-0.0260592
-0.0281161
-0.0300693
-0.031913
-0.0334991
-0.0347929
-0.0356161
-0.0358703
-0.0355769
-0.0349006
-0.0340575
-0.0332537
-0.0325472
-0.031743
-0.0303377
-0.0277127
-0.0233917
-0.0171541
-0.00926097
-0.000325726
0.00878319
0.0173398
0.0247956
0.0308944
0.0358301
0.039893
0.0434175
0.0466602
0.0496469
0.0522148
0.054006
0.0546127
0.0537641
0.0514817
0.0481372
0.044335
0.0407204
0.0376725
0.0352771
0.0334537
0.0320274
0.0311629
0.0312978
0.0328531
0.035893
0.0397148
0.0428788
0.0434615
0.0397914
0.0310654
0.0174562
0.000271428
-0.0186034
-0.0373189
-0.0542881
-0.068627
-0.0799258
-0.0881473
-0.0934445
-0.0961822
-0.0969353
-0.096415
-0.0953503
-0.094347
-0.0936945
-0.093469
-0.093371
-0.0930745
-0.0923544
-0.0910684
-0.089186
-0.0867581
-0.0840235
-0.0813832
-0.0796126
-0.0796356
-0.0824061
-0.0887003
-0.0989308
-0.113083
-0.130966
-0.152399
-0.177232
-0.204851
-0.233287
-0.258355
-0.273074
-0.267513
-0.229834
-0.148415
-0.0156279
0.167867
0.389349
0.622745
0.831432
0.975663
1.02327
0.959942
0.795231
0.561307
0.304145
0.0702618
-0.106041
-0.210356
-0.248486
-0.240029
-0.209121
-0.1759
-0.151907
-0.139885
-0.13706
-0.13885
-0.141614
-0.143645
-0.144827
-0.145766
-0.146855
-0.147902
-0.148346
-0.147645
-0.145452
-0.141861
-0.137352
-0.132566
-0.128115
-0.124402
-0.12143
-0.118953
-0.116621
-0.114103
-0.111156
-0.107882
-0.104533
-0.101526
-0.0993231
-0.0983127
-0.0986683
-0.100386
-0.103064
-0.106176
-0.109082
-0.111182
-0.112169
-0.112032
-0.111017
-0.109492
-0.107802
-0.106064
-0.10427
-0.102357
-0.100146
-0.0976959
-0.0951604
-0.0928142
-0.0909952
-0.0899555
-0.0899033
-0.0908212
-0.09256
-0.0948272
-0.0971676
-0.0992087
-0.100688
-0.101544
-0.10198
-0.102199
-0.102398
-0.102596
-0.102589
-0.102072
-0.100883
-0.0989867
-0.0966633
-0.0944033
-0.0927833
-0.0921474
-0.0927482
-0.0945105
-0.0971326
-0.100287
-0.103533
-0.106582
-0.109177
-0.111185
-0.112531
-0.113128
-0.11294
-0.111798
-0.10944
-0.105499
-0.099645
-0.0916831
-0.0817094
-0.0702367
-0.0580574
-0.0460591
-0.034917
-0.024865
-0.0156903
-0.00675021
0.00265074
0.0129709
0.0242048
0.0358644
0.0471198
0.0571152
0.0652083
0.0712769
0.0756044
0.0787814
0.0814352
0.0840312
0.0866419
0.0890645
0.0908067
0.091395
0.0905772
0.0883207
0.0849937
0.0811385
0.077412
0.0743613
0.0724787
0.0719155
0.0727102
0.0746908
0.0776171
0.0810085
0.0843309
0.0870601
0.088588
0.0886615
0.0873854
0.0850775
0.0822802
0.0796168
0.0775174
0.0761366
0.0754336
0.0750685
0.0746343
0.0737812
0.0722274
0.0698376
0.0665225
0.0624012
0.0576686
0.0526587
0.0477255
0.043244
0.0393908
0.0362963
0.0338475
0.0318911
0.0302921
0.0288824
0.027685
0.0266186
0.0255729
0.0243656
0.022812
0.020829
0.0185221
0.0160753
0.0138007
0.0118812
0.0103677
0.00909434
0.00786002
0.0065211
0.00504046
0.00345013
0.00180914
0.000198835
-0.00150008
-0.00337392
-0.00542983
-0.00775909
-0.0103
-0.0128858
-0.0153441
-0.0174986
-0.0193378
-0.0206795
-0.0214528
-0.021413
-0.0201542
-0.0172956
-0.0125117
-0.00563117
0.0031362
0.0131544
0.0234823
0.0331244
0.0413047
0.0477587
0.0527763
0.0570373
0.0613747
0.0663054
0.0718243
0.0773107
0.0817174
0.0840888
0.0838581
0.0811293
0.07643
0.0707529
0.0651266
0.0605394
0.0577591
0.0573781
0.0595996
0.0639982
0.0694729
0.0742993
0.0764162
0.0742133
0.0668803
0.0548274
0.0394822
0.0227509
0.00648157
-0.00797556
-0.0202389
-0.0304509
-0.0389715
-0.0461746
-0.0521698
-0.0570367
-0.0608291
-0.0638228
-0.0663343
-0.0687618
-0.0712254
-0.0736813
-0.0757806
-0.0769855
-0.076934
-0.0754504
-0.072668
-0.0689441
-0.064783
-0.0607722
-0.0573406
-0.054933
-0.0541183
-0.0557196
-0.0609012
-0.0712035
-0.0878857
-0.111732
-0.142159
-0.176276
-0.208456
-0.230093
-0.230187
-0.196319
-0.117205
0.0136121
0.193856
0.409076
0.632386
0.827576
0.956993
0.991534
0.91996
0.753562
0.524271
0.276009
0.0523582
-0.115178
-0.213621
-0.248569
-0.238454
-0.205901
-0.17015
-0.142691
-0.126973
-0.121036
-0.120952
-0.123235
-0.125801
-0.128097
-0.130192
-0.13218
-0.133985
-0.135274
-0.135797
-0.135351
-0.133913
-0.13158
-0.12861
-0.125285
-0.12193
-0.118782
-0.116044
-0.113635
-0.11149
-0.10944
-0.107354
-0.105142
-0.102863
-0.10066
-0.0987827
-0.0975345
-0.0971056
-0.097649
-0.0990777
-0.101047
-0.103115
-0.104782
-0.105614
-0.105359
-0.104029
-0.101835
-0.0990782
-0.0960053
-0.0928513
-0.089684
-0.086495
-0.083356
-0.0802705
-0.0773955
-0.0748932
-0.0729911
-0.0717769
-0.0712483
-0.071248
-0.0715488
-0.0718427
-0.0718898
-0.0715369
-0.0707418
-0.069534
-0.0680014
-0.0663075
-0.0646068
-0.063244
-0.062684
-0.0632964
-0.065291
-0.0686094
-0.0729035
-0.0774307
-0.0815457
-0.0846931
-0.0865348
-0.0871776
-0.0869752
-0.0863624
-0.0857053
-0.085291
-0.0850597
-0.0847718
-0.0839684
-0.0819981
-0.0782649
-0.0722546
-0.0636989
-0.052797
-0.0402204
-0.0269269
-0.014155
-0.00293855
0.00611425
0.0129824
0.0181643
0.0225217
0.0269067
0.0318363
0.0375392
0.0438409
0.0503927
0.056919
0.0632736
0.0693801
0.0751743
0.0806573
0.0855764
0.0897094
0.0928483
0.0948243
0.0957446
0.0957449
0.0950567
0.0939197
0.0925317
0.0910306
0.0895503
0.0882056
0.087044
0.0860252
0.0850124
0.0838323
0.0823943
0.0806967
0.0788475
0.0770499
0.0754429
0.0739882
0.0725996
0.0710581
0.0692552
0.0671953
0.0650935
0.0631506
0.0615786
0.0604371
0.0595233
0.0585787
0.0572514
0.0553365
0.0526969
0.0493927
0.0456095
0.0415996
0.0376481
0.0340566
0.03113
0.029019
0.0277318
0.0271661
0.0270235
0.0268798
0.026443
0.025493
0.0238885
0.0217969
0.0193457
0.0167603
0.0142141
0.0119098
0.00989699
0.00817761
0.0066664
0.00518598
0.00358746
0.00166189
-0.000610909
-0.00314109
-0.00558546
-0.0075773
-0.00857339
-0.00829734
-0.00673353
-0.00414496
-0.00110193
0.00169982
0.00368951
0.00466934
0.00474594
0.00436226
0.00420846
0.00494909
0.00723376
0.0114589
0.0177141
0.0256117
0.0344331
0.0431138
0.0505939
0.0560883
0.0593001
0.0605839
0.0608351
0.0611813
0.0626082
0.0657809
0.0706119
0.0765991
0.082785
0.0880812
0.0916495
0.0929944
0.0920584
0.0891912
0.0849306
0.0800146
0.075122
0.0709864
0.068332
0.0675409
0.0685592
0.0706066
0.0722123
0.0715254
0.066862
0.0571958
0.0425767
0.0242346
0.00417069
-0.0153823
-0.0324981
-0.0460272
-0.0555531
-0.0614316
-0.0642961
-0.0649245
-0.0640607
-0.0623605
-0.0602635
-0.0581216
-0.056222
-0.0547741
-0.0538344
-0.0534019
-0.0534063
-0.053643
-0.0538899
-0.0538895
-0.0533725
-0.0522317
-0.050546
-0.0486769
-0.0473281
-0.0478037
-0.0518784
-0.0614337
-0.0782568
-0.103274
-0.135902
-0.17313
-0.209277
-0.235708
-0.241293
-0.213503
-0.140799
-0.0161957
0.158631
0.369853
0.590697
0.784797
0.914094
0.949213
0.87909
0.715741
0.49183
0.251661
0.0382582
-0.118108
-0.206476
-0.234335
-0.221171
-0.189733
-0.158244
-0.136657
-0.126909
-0.126008
-0.129361
-0.133365
-0.136126
-0.13725
-0.13699
-0.13566
-0.133373
-0.130225
-0.126344
-0.122007
-0.11763
-0.113536
-0.110092
-0.107412
-0.105474
-0.104149
-0.103116
-0.10215
-0.101007
-0.0995386
-0.0977746
-0.0958205
-0.0937715
-0.0917828
-0.0899928
-0.0884143
-0.0871098
-0.0860471
-0.0851997
-0.0844767
-0.0838151
-0.0831117
-0.0823466
-0.0814758
-0.0805219
-0.0794956
-0.0783981
-0.0773297
-0.0761465
-0.0748988
-0.0735998
-0.0722647
-0.0710292
-0.0699973
-0.069188
-0.0686885
-0.0683967
-0.0682025
-0.0680466
-0.0678255
-0.0674446
-0.0668535
-0.0659839
-0.0648796
-0.0637085
-0.062765
-0.0623718
-0.0627996
-0.0640734
-0.0659108
-0.06785
-0.0693823
-0.0700931
-0.0698013
-0.0687545
-0.0673613
-0.0661133
-0.0653873
-0.0653735
-0.0660054
-0.0671175
-0.0684157
-0.0697632
-0.0708291
-0.071365
-0.0710495
-0.0694705
-0.0662876
-0.0613947
-0.054875
-0.0471619
-0.038756
-0.0303131
-0.022237
-0.0147371
-0.00783368
-0.00127196
0.00530358
0.0121956
0.0196751
0.0277145
0.0362029
0.0447975
0.0530442
0.0605814
0.0672046
0.0728472
0.07759
0.081652
0.0850739
0.087847
0.0898829
0.0910795
0.0914292
0.091203
0.0908151
0.090718
0.0911976
0.0922422
0.0934609
0.0942244
0.0939086
0.0920774
0.0886911
0.0841974
0.0792961
0.0748572
0.0715361
0.0696814
0.0692733
0.06996
0.0712411
0.0727143
0.0741401
0.0755081
0.0768665
0.0782343
0.0793753
0.079928
0.0794252
0.077534
0.0741329
0.0694791
0.0640644
0.0585673
0.0535279
0.0493357
0.0460703
0.0435667
0.0415396
0.0395626
0.0373381
0.0346835
0.0315786
0.0282128
0.0248655
0.0218933
0.0195031
0.0176694
0.0163235
0.0152017
0.0141449
0.0131019
0.0122822
0.0119319
0.0123042
0.0133942
0.014983
0.0166519
0.0179729
0.0186136
0.0184459
0.0175851
0.0162527
0.0147116
0.0130811
0.0114309
0.00962016
0.00743215
0.00476926
0.00165606
-0.00171164
-0.00505893
-0.00801521
-0.0102214
-0.0114931
-0.0116684
-0.0107378
-0.00877427
-0.00592694
-0.00247944
0.00123959
0.00503508
0.00883791
0.0128776
0.0174832
0.0230099
0.0296683
0.0372306
0.0452223
0.052872
0.0594689
0.0644118
0.0674241
0.0687642
0.0690404
0.0691911
0.0702848
0.0731825
0.0781909
0.0849959
0.0925862
0.0994983
0.104281
0.105916
0.104111
0.099442
0.0931341
0.086691
0.0816438
0.0789732
0.0789697
0.0809133
0.0833207
0.084221
0.0816879
0.0743807
0.0619734
0.045262
0.0259299
0.00604728
-0.0124236
-0.0280277
-0.0400302
-0.0482847
-0.0530902
-0.0550813
-0.0550419
-0.0538608
-0.0523359
-0.0510943
-0.0504409
-0.0503921
-0.0507148
-0.0510706
-0.0512017
-0.050904
-0.0502677
-0.0494239
-0.0485763
-0.0480184
-0.0480246
-0.048876
-0.0508049
-0.0541332
-0.0593382
-0.067169
-0.0785987
-0.0946258
-0.116046
-0.14301
-0.174263
-0.206523
-0.234346
-0.24997
-0.243635
-0.204416
-0.122313
0.0088149
0.187583
0.401898
0.627711
0.83128
0.975778
1.03039
0.979583
0.829312
0.60657
0.352727
0.112017
-0.0801723
-0.205311
-0.263551
-0.269598
-0.24509
-0.210489
-0.179725
-0.158725
-0.147217
-0.141818
-0.138877
-0.136111
-0.132973
-0.129948
-0.127774
-0.126809
-0.126955
-0.127755
-0.128574
-0.128962
-0.128731
-0.127984
-0.127087
-0.126496
-0.126531
-0.127269
-0.128478
-0.12963
-0.130213
-0.129877
-0.128613
-0.126783
-0.124917
-0.123525
-0.122765
-0.12238
-0.121682
-0.119984
-0.116732
-0.111893
-0.105928
-0.0997748
-0.09444
-0.0907807
-0.0892007
-0.0895842
-0.0914393
-0.0941057
-0.0969742
-0.0996775
-0.102137
-0.104445
-0.106614
-0.108595
-0.110088
-0.110648
-0.109775
-0.107138
-0.102817
-0.0971659
-0.09105
-0.0854087
-0.0811042
-0.0784831
-0.0774094
-0.0772589
-0.0771158
-0.0762228
-0.0742393
-0.0713662
-0.0681776
-0.0654825
-0.0638375
-0.0635114
-0.0643977
-0.0662806
-0.0689892
-0.0724601
-0.0767848
-0.0818094
-0.087253
-0.0924578
-0.0966465
-0.0991388
-0.0995393
-0.0979723
-0.0947649
-0.0902876
-0.0847577
-0.0781011
-0.0700813
-0.060496
-0.0494818
-0.0375132
-0.0254549
-0.0143454
-0.00517075
0.00139778
0.00506623
0.00628733
0.00580906
0.00483654
0.00464127
0.00631299
0.0106248
0.0175567
0.0266741
0.036966
0.0473174
0.0567437
0.0646329
0.0709504
0.0760085
0.0803412
0.0844933
0.0887654
0.0931668
0.0974193
0.101057
0.103624
0.104859
0.104752
0.103588
0.101909
0.100334
0.0991863
0.098543
0.0980559
0.0972594
0.0957252
0.0933095
0.0903195
0.0873426
0.085161
0.0842069
0.0845512
0.0857538
0.0869226
0.0871593
0.0858722
0.0829971
0.0790189
0.0749032
0.0716272
0.0698609
0.0697228
0.070694
0.0718509
0.072159
0.0707528
0.0672654
0.0618589
0.0552696
0.0485015
0.0425744
0.0382794
0.0358867
0.0351703
0.0354414
0.0357544
0.0353418
0.0336047
0.0304414
0.026154
0.0213364
0.0166285
0.0125818
0.00957369
0.00764735
0.00666032
0.00643569
0.00676805
0.00759734
0.00891501
0.0105893
0.0123022
0.0135582
0.0138461
0.012745
0.0103041
0.00698812
0.00351316
0.000722674
-0.000879086
-0.00114027
-0.000438713
0.000520457
0.0010438
0.000627167
-0.00094868
-0.00353713
-0.00684527
-0.010323
-0.0134306
-0.0157302
-0.0169295
-0.0169897
-0.0159727
-0.0141843
-0.0118996
-0.00914878
-0.00574062
-0.00144398
0.00406612
0.0107767
0.0183599
0.0262233
0.0337903
0.040675
0.0468959
0.0527953
0.0587819
0.0651598
0.0719242
0.078621
0.0846099
0.0891715
0.0919394
0.0927435
0.091786
0.0894421
0.0861121
0.0821637
0.0778374
0.0734484
0.0694863
0.0665598
0.0653665
0.0664001
0.0694
0.0734285
0.0768186
0.0776464
0.0743302
0.0660853
0.0533428
0.0374341
0.0204355
0.0043518
-0.00929078
-0.0197512
-0.0269502
-0.0312751
-0.0333828
-0.0339326
-0.0334885
-0.0325792
-0.031503
-0.0305293
-0.0298153
-0.0294898
-0.0296466
-0.0303389
-0.0316846
-0.0337163
-0.0362906
-0.0390986
-0.0416445
-0.0433456
-0.0437024
-0.0424626
-0.0398191
-0.036326
-0.0329733
-0.0310944
-0.0323239
-0.038311
-0.0504926
-0.0698369
-0.0963139
-0.128405
-0.162539
-0.192565
-0.209921
-0.203888
-0.162708
-0.0756987
0.0633298
0.252123
0.476721
0.7104
0.916517
1.05613
1.09813
1.02928
0.859502
0.620714
0.358151
0.117756
-0.0662263
-0.178535
-0.223572
-0.219489
-0.189633
-0.154321
-0.126224
-0.109661
-0.103141
-0.10278
-0.104754
-0.106651
-0.107439
-0.107144
-0.106025
-0.104432
-0.102674
-0.101055
-0.0997369
-0.0988145
-0.0981669
-0.0976536
-0.0971032
-0.0965218
-0.0960125
-0.0957503
-0.0958441
-0.0962337
-0.0966494
-0.096704
-0.0960565
-0.0944452
-0.0917965
-0.0883582
-0.0845866
-0.0809991
-0.0781539
-0.0762913
-0.0755419
-0.0756543
-0.0763072
-0.0770613
-0.0776167
-0.0778269
-0.077819
-0.0777724
-0.0778848
-0.0783558
-0.0792312
-0.0804428
-0.0818108
-0.0831079
-0.0839771
-0.0842111
-0.0836116
-0.0822151
-0.0801114
-0.0775907
-0.074989
-0.0725629
-0.0704692
-0.0687381
-0.0671846
-0.0657572
-0.0643918
-0.0632988
-0.0627476
-0.0631135
-0.064565
-0.0670944
-0.0703288
-0.0737366
-0.0767878
-0.0789948
-0.0801906
-0.0805346
-0.0804384
-0.0804581
-0.0811618
-0.0829198
-0.0858785
-0.0898129
-0.0943277
-0.0987591
-0.102313
-0.104168
-0.10354
-0.0998944
-0.0930904
-0.0833844
-0.0715963
-0.0588184
-0.0463175
-0.0351075
-0.025768
-0.0183908
-0.0124741
-0.00716095
-0.00142326
0.005559
0.0143194
0.0249318
0.0370181
0.049873
0.0626701
0.0746255
0.085185
0.0939086
0.100713
0.105578
0.108719
0.110415
0.110967
0.110782
0.110255
0.10967
0.109364
0.109605
0.11054
0.112249
0.114496
0.11702
0.119393
0.121147
0.12196
0.1217
0.120471
0.118605
0.116435
0.114291
0.112373
0.110752
0.109403
0.108317
0.107397
0.106613
0.105812
0.104737
0.10315
0.100813
0.0975831
0.093603
0.0891468
0.0845458
0.0801768
0.0762066
0.0727594
0.0697576
0.0670464
0.0645473
0.0621744
0.0599628
0.057931
0.0561154
0.0545611
0.0532885
0.0522023
0.0511664
0.0499535
0.0483553
0.0461508
0.0432083
0.0395254
0.0353686
0.0309993
0.026752
0.022942
0.0196394
0.0168086
0.0143326
0.0121059
0.0101648
0.00862971
0.00764106
0.00745164
0.00805964
0.00933393
0.0108781
0.0124225
0.0135744
0.0141913
0.0142238
0.013813
0.0131029
0.0122819
0.0113581
0.0102957
0.00905826
0.00765458
0.00614167
0.00462201
0.00327353
0.0020777
0.0010377
4.4937e-5
-0.000974864
-0.00201868
-0.00306158
-0.00394473
-0.00433107
-0.00394491
-0.00231452
0.0009801
0.00639488
0.013991
0.0236519
0.0347646
0.0464413
0.0577088
0.0677387
0.0761336
0.0830164
0.0888988
0.0944375
0.10006
0.105746
0.111034
0.11515
0.117416
0.117465
0.115414
0.111829
0.107338
0.102546
0.0977591
0.0929771
0.0881745
0.0832724
0.0784054
0.0738493
0.0699741
0.0671922
0.0659568
0.0666592
0.0694336
0.0740457
0.0795648
0.0844519
0.0868748
0.0851353
0.0782787
0.0663925
0.0506777
0.0329911
0.0152691
-0.000938954
-0.014689
-0.0256981
-0.0340645
-0.0400508
-0.0441286
-0.0467875
-0.0486883
-0.0503189
-0.0521478
-0.0543868
-0.0568937
-0.0593336
-0.0613276
-0.0625558
-0.0628347
-0.0621945
-0.0607417
-0.0586669
-0.0562293
-0.0538169
-0.0519106
-0.0512004
-0.0527714
-0.0580496
-0.0686192
-0.0857323
-0.110055
-0.140925
-0.175788
-0.209735
-0.235419
-0.243448
-0.223031
-0.163352
-0.0557748
0.103172
0.308237
0.542736
0.778207
0.977825
1.10389
1.12784
1.03943
0.85171
0.598859
0.327366
0.0831392
-0.100628
-0.210441
-0.252517
-0.24655
-0.216784
-0.183658
-0.159234
-0.146897
-0.144379
-0.147232
-0.151709
-0.155786
-0.159132
-0.162049
-0.164837
-0.167421
-0.169428
-0.170489
-0.170399
-0.169251
-0.167246
-0.164562
-0.161366
-0.157728
-0.15369
-0.149441
-0.145289
-0.141538
-0.138613
-0.136768
-0.136033
-0.136196
-0.136787
-0.137262
-0.137096
-0.135906
-0.133622
-0.130441
-0.126774
-0.123214
-0.120261
-0.118272
-0.117348
-0.117342
-0.117845
-0.118368
-0.118539
-0.118119
-0.117126
-0.115735
-0.114255
-0.112796
-0.111318
-0.109771
-0.10801
-0.106006
-0.10401
-0.102367
-0.101491
-0.101577
-0.10244
-0.103712
-0.104735
-0.104949
-0.104029
-0.101946
-0.0990847
-0.0959724
-0.0932265
-0.0912203
-0.0901882
-0.0900623
-0.0905491
-0.0913468
-0.0921805
-0.0928851
-0.0934748
-0.0940775
-0.0948865
-0.0960282
-0.0973853
-0.0987924
-0.0998764
-0.100187
-0.0992813
-0.0967178
-0.0921516
-0.0852524
-0.0759202
-0.0642668
-0.050888
-0.0366674
-0.0227942
-0.0104753
-0.000522681
0.0066198
0.0112424
0.014077
0.0162226
0.0187468
0.0225154
0.0279953
0.0352252
0.0438722
0.0533585
0.0630487
0.072292
0.0806207
0.0876818
0.0932649
0.0973766
0.100178
0.101977
0.10307
0.103829
0.104397
0.104893
0.105167
0.105065
0.104431
0.1031
0.101112
0.0985834
0.0957846
0.0929259
0.090287
0.0880381
0.0861955
0.0848519
0.0839163
0.0833005
0.082895
0.0825811
0.0822576
0.0819467
0.0816376
0.0813333
0.0808542
0.0798829
0.0780627
0.0751059
0.0710349
0.0661438
0.0610726
0.0564892
0.0528653
0.0502688
0.0484309
0.0467218
0.0445967
0.0416961
0.0379033
0.033586
0.0292712
0.0254086
0.0223648
0.0201509
0.0185151
0.0170689
0.0154697
0.013594
0.0116557
0.00992213
0.00870026
0.0080371
0.00772039
0.00730751
0.00640761
0.00480181
0.00253511
-0.000108088
-0.00281496
-0.00538161
-0.0078181
-0.0102192
-0.012774
-0.0154514
-0.0180036
-0.0200943
-0.0213442
-0.0215316
-0.0207244
-0.0191425
-0.017169
-0.0152299
-0.0135442
-0.0123383
-0.0116533
-0.0113522
-0.0113247
-0.0114593
-0.0117017
-0.0119539
-0.012256
-0.0124549
-0.0123188
-0.0114936
-0.00950457
-0.00586761
-0.000279844
0.00726772
0.0163688
0.0262501
0.0359886
0.04464
0.0515565
0.0565298
0.059926
0.0623555
0.064587
0.0671848
0.070419
0.0743393
0.0788042
0.0834256
0.0878063
0.0914727
0.0939271
0.0947505
0.0938614
0.0914539
0.0879609
0.0839683
0.0799957
0.0763711
0.0733741
0.0713484
0.0706859
0.0716835
0.0742391
0.0776138
0.0804373
0.08106
0.0779885
0.0704378
0.0585577
0.0434851
0.026796
0.0102159
-0.00492901
-0.0177262
-0.0277288
-0.0348346
-0.0391691
-0.0411447
-0.0413469
-0.0405666
-0.039538
-0.0388315
-0.0388427
-0.0395346
-0.0407463
-0.0422732
-0.0440538
-0.0461143
-0.0485934
-0.0514567
-0.0544514
-0.0571666
-0.0591958
-0.0603217
-0.0607869
-0.0615124
-0.0639688
-0.0701197
-0.0818289
-0.100325
-0.125806
-0.156863
-0.190064
-0.219878
-0.238964
-0.238695
-0.209749
-0.143256
-0.0323422
0.125114
0.32376
0.54832
0.773238
0.965254
1.08966
1.11908
1.04168
0.866332
0.62167
0.349317
0.0929976
-0.112277
-0.247872
-0.313133
-0.321988
-0.295775
-0.255652
-0.217167
-0.188389
-0.170868
-0.162218
-0.158699
-0.157162
-0.155808
-0.154196
-0.152537
-0.151201
-0.150379
-0.150049
-0.150152
-0.150478
-0.15087
-0.151284
-0.151611
-0.151715
-0.151504
-0.150851
-0.149698
-0.147883
-0.145444
-0.142454
-0.139068
-0.135513
-0.132127
-0.129247
-0.12711
-0.125798
-0.125102
-0.124635
-0.123933
-0.122589
-0.120481
-0.117815
-0.115066
-0.112852
-0.111677
-0.111774
-0.113037
-0.114941
-0.116876
-0.118285
-0.118878
-0.118668
-0.117819
-0.116675
-0.115499
-0.11439
-0.113279
-0.111915
-0.110125
-0.107787
-0.105117
-0.102415
-0.100065
-0.0982903
-0.09714
-0.0964218
-0.0958219
-0.0949811
-0.0937374
-0.0922013
-0.0906785
-0.0895489
-0.0891625
-0.0896743
-0.0910646
-0.0932308
-0.0960366
-0.0993287
-0.103035
-0.106968
-0.110806
-0.114085
-0.116286
-0.116957
-0.115685
-0.112346
-0.106789
-0.0989871
-0.0890299
-0.0771963
-0.0640556
-0.0505295
-0.0377223
-0.0267578
-0.0184817
-0.0132574
-0.0109446
-0.0110032
-0.0127518
-0.0154656
-0.0184871
-0.0212822
-0.0232619
-0.0237728
-0.0221085
-0.0177233
-0.0103597
-0.000239106
0.0119738
0.0251908
0.0382359
0.0501135
0.0602059
0.0683023
0.0744093
0.0787507
0.0816273
0.0833675
0.0842917
0.084744
0.0849984
0.0852819
0.0856187
0.0858963
0.085875
0.085238
0.0837362
0.0814298
0.0784667
0.0752163
0.0721145
0.0696324
0.0679896
0.0671822
0.0668356
0.0665823
0.0660111
0.0649089
0.0634124
0.0617752
0.0604902
0.0597576
0.0595239
0.0593826
0.0588218
0.0573565
0.0548398
0.0514897
0.0478604
0.0445592
0.0420145
0.0403313
0.0391775
0.0379217
0.0359937
0.0329952
0.0289802
0.0242129
0.019252
0.0146268
0.0107331
0.007489
0.00461596
0.00185625
-0.000946973
-0.00360509
-0.00577161
-0.00709109
-0.00742783
-0.00697413
-0.00626038
-0.00578175
-0.0059393
-0.00681827
-0.0081485
-0.00955098
-0.0107936
-0.0118909
-0.013031
-0.0145442
-0.0166165
-0.0192596
-0.022338
-0.0254354
-0.0281904
-0.0303446
-0.0318225
-0.0327121
-0.0332976
-0.0337908
-0.0343342
-0.0349141
-0.0353749
-0.0354049
-0.0348017
-0.0334807
-0.0316834
-0.0298771
-0.0285302
-0.0278793
-0.027737
-0.0275071
-0.0262678
-0.0232401
-0.0180107
-0.0108471
-0.002504
0.00602388
0.0138725
0.0205579
0.0261349
0.0310847
0.03603
0.0415648
0.0479727
0.0550238
0.0622109
0.0686908
0.0737367
0.0768553
0.077875
0.0769139
0.0743998
0.0706737
0.0661946
0.0613138
0.0565579
0.0526714
0.0505387
0.050763
0.0531912
0.056907
0.060149
0.0607576
0.0568827
0.0475711
0.033088
0.0148182
-0.00516802
-0.0248058
-0.0423933
-0.056867
-0.0677762
-0.0749499
-0.0785871
-0.0791742
-0.0774523
-0.0743293
-0.0708534
-0.0677499
-0.0655516
-0.0642946
-0.063691
-0.0633488
-0.0630607
-0.0627869
-0.0626112
-0.0626401
-0.0628926
-0.0632735
-0.0636249
-0.0638257
-0.0639705
-0.0647212
-0.0671203
-0.0727461
-0.0833942
-0.100484
-0.124521
-0.154205
-0.185914
-0.21408
-0.232214
-0.234535
-0.217304
-0.179591
-0.122736
-0.0487578
0.0415729
0.150006
0.280018
0.433888
0.609157
0.794685
0.969366
1.10464
1.17106
1.14684
1.02594
0.822059
0.566291
0.299719
0.0622793
-0.117366
-0.227641
-0.274125
-0.274497
-0.250553
-0.221084
-0.197654
-0.184189
-0.17929
-0.179223
-0.18037
-0.18052
-0.179097
-0.176484
-0.173217
-0.169944
-0.167088
-0.164948
-0.163597
-0.162933
-0.162605
-0.162217
-0.161415
-0.159996
-0.15815
-0.156242
-0.154699
-0.153782
-0.153493
-0.153498
-0.153328
-0.152544
-0.150911
-0.148555
-0.145739
-0.142787
-0.13992
-0.137156
-0.134406
-0.131525
-0.128353
-0.124987
-0.12164
-0.118639
-0.116408
-0.115307
-0.115466
-0.11681
-0.118945
-0.121303
-0.123301
-0.124402
-0.124417
-0.123516
-0.122206
-0.121069
-0.120495
-0.120588
-0.121056
-0.121301
-0.120781
-0.119166
-0.116516
-0.113325
-0.110131
-0.107556
-0.106018
-0.105566
-0.106067
-0.107277
-0.108788
-0.110316
-0.111709
-0.112941
-0.114186
-0.115657
-0.117575
-0.120128
-0.123354
-0.127185
-0.131328
-0.135395
-0.138937
-0.14135
-0.142065
-0.14054
-0.136283
-0.129038
-0.118862
-0.106164
-0.0916131
-0.0760928
-0.0605961
-0.0459382
-0.03265
-0.0208943
-0.0105783
-0.0012737
0.00748035
0.0161197
0.0249875
0.0342015
0.0438086
0.0536639
0.063578
0.0733624
0.0827812
0.0916261
0.0996909
0.106785
0.112717
0.117403
0.120882
0.123213
0.124524
0.125024
0.124686
0.123488
0.121501
0.118776
0.115526
0.112089
0.108766
0.1057
0.102898
0.100291
0.0977135
0.0951426
0.0926413
0.0903152
0.0883707
0.086837
0.085659
0.0846241
0.0835067
0.0821155
0.0803817
0.0783543
0.0760907
0.0737661
0.0714666
0.069157
0.0668627
0.0645386
0.0620475
0.0593634
0.0563992
0.0530245
0.049199
0.0449006
0.0401764
0.0351958
0.0303443
0.02601
0.0225896
0.0203009
0.0190555
0.0185145
0.0182227
0.0177545
0.0169217
0.0157332
0.0143226
0.0128504
0.0113989
0.00986212
0.00822223
0.00648727
0.00471902
0.0031281
0.00185648
0.000878656
0.000123958
-0.000521004
-0.00115745
-0.00176636
-0.0023156
-0.00277827
-0.00319396
-0.00367795
-0.00441753
-0.00544712
-0.00668663
-0.00792249
-0.00891968
-0.00948256
-0.00961662
-0.00945317
-0.00922991
-0.00921016
-0.00956269
-0.0102986
-0.0114151
-0.0126909
-0.0137848
-0.0142966
-0.0136382
-0.0113153
-0.00708364
-0.000965722
0.00663222
0.0149073
0.0230504
0.0303461
0.0364184
0.0412839
0.0454025
0.0494719
0.0541686
0.0599461
0.0668011
0.0742818
0.0815824
0.0876429
0.0915712
0.0929023
0.0916142
0.0883712
0.0841292
0.0800611
0.0772253
0.0763379
0.077213
0.078907
0.0798392
0.0782549
0.07286
0.0632781
0.0501537
0.0349629
0.0194075
0.00494833
-0.00764461
-0.0182344
-0.027092
-0.034537
-0.0407404
-0.0456181
-0.049148
-0.0514026
-0.0527182
-0.0535659
-0.0543945
-0.0555609
-0.0571798
-0.0591447
-0.0612148
-0.0632097
-0.0648361
-0.0658874
-0.0660675
-0.0651878
-0.0633617
-0.0610419
-0.0593577
-0.0601551
-0.0656603
-0.0779693
-0.0983146
-0.126464
-0.160068
-0.194232
-0.221725
-0.233787
-0.22129
-0.17606
-0.0920926
0.0333379
0.199238
0.400187
0.625942
0.860973
1.0843
1.27033
1.39157
1.42391
1.35305
1.18069
0.927061
0.628044
0.327543
0.06663
-0.12638
-0.241754
-0.287977
-0.285887
-0.259967
-0.230714
-0.210181
-0.201773
-0.20298
-0.209008
-0.2156
-0.220252
-0.22225
-0.222022
-0.220359
-0.218078
-0.215942
-0.214523
-0.214132
-0.214639
-0.215478
-0.21586
-0.215165
-0.213035
-0.20972
-0.205757
-0.201894
-0.198666
-0.19622
-0.194334
-0.192644
-0.190758
-0.188502
-0.185998
-0.183398
-0.180843
-0.178486
-0.17632
-0.174441
-0.172949
-0.171927
-0.171425
-0.171355
-0.1715
-0.171578
-0.171529
-0.171251
-0.170946
-0.170732
-0.170658
-0.170597
-0.170364
-0.16969
-0.168485
-0.166873
-0.165142
-0.163607
-0.162523
-0.161957
-0.161688
-0.161385
-0.160763
-0.159567
-0.157813
-0.155742
-0.153738
-0.15218
-0.151421
-0.151668
-0.152949
-0.155095
-0.157753
-0.160685
-0.163444
-0.16585
-0.167731
-0.169137
-0.170128
-0.170849
-0.171367
-0.171604
-0.171286
-0.169854
-0.166538
-0.160533
-0.15108
-0.137775
-0.120641
-0.1003
-0.0779049
-0.0548632
-0.0326792
-0.0126047
0.00458856
0.0187226
0.0301423
0.0393845
0.0470405
0.0535872
0.0591482
0.0637836
0.0674404
0.0702236
0.0723819
0.0743053
0.0764737
0.0792911
0.083014
0.0876671
0.092932
0.0984195
0.103492
0.10761
0.110305
0.111359
0.110869
0.109173
0.106779
0.104297
0.102232
0.100876
0.100176
0.0997556
0.0990519
0.0974543
0.0945523
0.0903073
0.0850597
0.0794267
0.0740729
0.0696156
0.0663542
0.0643368
0.0634088
0.0632623
0.0636073
0.0641592
0.0647141
0.0649948
0.0648349
0.0641196
0.0627834
0.0608377
0.0583931
0.0555419
0.0522678
0.0485629
0.0443567
0.0396364
0.0345068
0.0290901
0.0236419
0.0184176
0.0137176
0.00982676
0.00701993
0.00541497
0.0050543
0.00564245
0.00665592
0.00746687
0.00747331
0.00628948
0.00387579
0.000514336
-0.00330567
-0.00706631
-0.010443
-0.0133144
-0.0157819
-0.0180788
-0.020264
-0.0223359
-0.0241169
-0.0253235
-0.0257538
-0.0253415
-0.0241777
-0.0224756
-0.0205006
-0.0184029
-0.0162525
-0.0139455
-0.0113917
-0.00840177
