-0.0988041
-0.120629
-0.135548
-0.142642
-0.142969
-0.138918
-0.133335
-0.128665
-0.126293
-0.126634
-0.129287
-0.133435
-0.138153
-0.142312
-0.145541
-0.147516
-0.148308
-0.147977
-0.146603
-0.144013
-0.140126
-0.135279
-0.130222
-0.126345
-0.125183
-0.127928
-0.135051
-0.145943
-0.159157
-0.172805
-0.185084
-0.194715
-0.201069
-0.204143
-0.204513
-0.20298
-0.200616
-0.198449
-0.197253
-0.197324
-0.198523
-0.200222
-0.20157
-0.201743
-0.200204
-0.196918
-0.192306
-0.187084
-0.1821
-0.177964
-0.174917
-0.172757
-0.171084
-0.169563
-0.168039
-0.16682
-0.166493
-0.167859
-0.171743
-0.178808
-0.189682
-0.204875
-0.224502
-0.247768
-0.272213
-0.293246
-0.303949
-0.295452
-0.257777
-0.182
-0.0629281
0.097605
0.288248
0.487255
0.664914
0.789322
0.834453
0.788114
0.656795
0.465128
0.249409
0.0476468
-0.110585
-0.210679
-0.254104
-0.254515
-0.23054
-0.199329
-0.172147
-0.153495
-0.143036
-0.138232
-0.136398
-0.135826
-0.135673
-0.135499
-0.134867
-0.134261
-0.132693
-0.130236
-0.127437
-0.124993
-0.123331
-0.122445
-0.121713
-0.120325
-0.117602
-0.113363
-0.108125
-0.102941
-0.0990257
-0.0972328
-0.0979132
-0.100558
-0.104165
-0.107484
-0.109413
-0.109355
-0.107325
-0.103787
-0.0994287
-0.0950261
-0.0910423
-0.0877213
-0.0849853
-0.0827505
-0.0808739
-0.0793761
-0.0784966
-0.0784237
-0.0793724
-0.0812058
-0.0835893
-0.0858881
-0.0873914
-0.0875031
-0.0860372
-0.0831432
-0.0794309
-0.0757442
-0.0728032
-0.0711768
-0.0710067
-0.0720763
-0.0739011
-0.0758797
-0.0774915
-0.0783788
-0.07843
-0.0777801
-0.076692
-0.0754606
-0.0743021
-0.0733957
-0.0727663
-0.0725114
-0.0726669
-0.0733508
-0.074485
-0.0759958
-0.0776978
-0.0794039
-0.0810604
-0.0828125
-0.0848137
-0.0871898
-0.0897689
-0.0919688
-0.0929949
-0.0918865
-0.0879423
-0.0809735
-0.0714818
-0.0604855
-0.049371
-0.0395097
-0.0318888
-0.0269287
-0.0244841
-0.0237913
-0.0238912
-0.0237683
-0.0225507
-0.0198162
-0.015589
-0.0102247
-0.00423598
0.00185647
0.00774036
0.0133505
0.0187761
0.0242424
0.0298387
0.0355992
0.0414712
0.047432
0.0534213
0.0594192
0.0653763
0.0710589
0.076226
0.0806729
0.0841519
0.0866167
0.0880695
0.0885076
0.0880937
0.0869851
0.0853557
0.083497
0.0816659
0.0800203
0.0785018
0.0769271
0.0750567
0.0727718
0.070098
0.0671828
0.0641855
0.0612414
0.0583544
0.0554106
0.0523554
0.0492836
0.0463619
0.0438848
0.0420368
0.0408123
0.0400823
0.0395656
0.0391052
0.038577
0.0379608
0.0372667
0.0365352
0.0356993
0.0346453
0.0332749
0.031533
0.0293556
0.0267422
0.0236238
0.0200088
0.0159281
0.0115972
0.00740818
0.0038388
0.00139873
0.000468339
0.00105883
0.00284823
0.0053171
0.00774179
0.00947718
0.0100507
0.00932105
0.00733046
0.00444133
0.00106259
-0.00231655
-0.00529129
-0.00762019
-0.0093212
-0.0106078
-0.0117665
-0.0130216
-0.0144187
-0.0158577
-0.0172143
-0.0184201
-0.0195745
-0.0208779
-0.0224396
-0.0241404
-0.025652
-0.0264899
-0.0261976
-0.0247185
-0.0223441
-0.0196187
-0.0171052
-0.0151977
-0.0139974
-0.0133344
-0.0128711
-0.0123399
-0.0117714
-0.0113729
-0.0114426
-0.0121526
-0.0134084
-0.0147097
-0.0152779
-0.014481
-0.0119172
-0.0077307
-0.00242283
0.00327274
0.0088804
0.0143447
0.0200296
0.0265586
0.0343589
0.0433748
0.0529763
0.0620136
0.0692718
0.0738064
0.0752772
0.0739982
0.0706461
0.0661615
0.0615258
0.0574351
0.0544911
0.0530654
0.0533565
0.0550284
0.0570561
0.0579521
0.0560038
0.0498225
0.0389335
0.0240851
0.00713519
-0.00954661
-0.0236569
-0.033698
-0.039399
-0.0414872
-0.0415095
-0.0410473
-0.0413577
-0.0431506
-0.0463466
-0.0503202
-0.0540984
-0.0567534
-0.0577419
-0.0569428
-0.0547703
-0.0519124
-0.0492131
-0.0472144
-0.0459676
-0.0452073
-0.0445615
-0.0437261
-0.0427291
-0.0421546
-0.0431728
-0.047304
-0.0562284
-0.0712307
-0.0929284
-0.120665
-0.151813
-0.181657
-0.203381
-0.20849
-0.187888
-0.133102
-0.0378685
0.0997792
0.275396
0.47698
0.68468
0.872667
1.01321
1.08234
1.06564
0.962762
0.788244
0.568737
0.336761
0.123418
-0.0480981
-0.166202
-0.231255
-0.252966
-0.245606
-0.223775
-0.198964
-0.17822
-0.164338
-0.157025
-0.154333
-0.154076
-0.154639
-0.155391
-0.156236
-0.157479
-0.15924
-0.161444
-0.163599
-0.16505
-0.165077
-0.163381
-0.160039
-0.155666
-0.151154
-0.147395
-0.14503
-0.144174
-0.144426
-0.14509
-0.145488
-0.145141
-0.144044
-0.142536
-0.141133
-0.140294
-0.140143
-0.140374
-0.140567
-0.140147
-0.138741
-0.136285
-0.133007
-0.129301
-0.125604
-0.122169
-0.119206
-0.116678
-0.114601
-0.112925
-0.111628
-0.110688
-0.109881
-0.109093
-0.108164
-0.107077
-0.105949
-0.104987
-0.104335
-0.104058
-0.10413
-0.10443
-0.104884
-0.10554
-0.106371
-0.107366
-0.108514
-0.109623
-0.110644
-0.111517
-0.112334
-0.11329
-0.11447
-0.115966
-0.1177
-0.119653
-0.121742
-0.123993
-0.126582
-0.129538
-0.13286
-0.136296
-0.139414
-0.141614
-0.142246
-0.140771
-0.136888
-0.13054
-0.121975
-0.111698
-0.100497
-0.0892436
-0.078793
-0.0698136
-0.0626553
-0.0572855
-0.0532766
-0.0498546
-0.0462174
-0.0415586
-0.0352927
-0.0270617
-0.0168868
-0.00508054
0.00784849
0.0212151
0.0343359
0.0465282
0.0573083
0.06635
0.0735383
0.0789517
0.0829285
0.0857888
0.0879024
0.0895636
0.0908529
0.0917635
0.0922741
0.0922855
0.0918603
0.0910997
0.0901435
0.0890691
0.0880521
0.0871029
0.0862525
0.0854689
0.0846872
0.0837926
0.0826683
0.0812784
0.0796573
0.0780411
0.0767006
0.0758785
0.0757776
0.0763607
0.0772825
0.0782347
0.0787144
0.0783521
0.0770456
0.074844
0.0720274
0.0690092
0.0661026
0.0635062
0.0612764
0.0592589
0.057198
0.0549049
0.0522357
0.0492003
0.0459295
0.042626
0.0395461
0.036782
0.0344268
0.0323632
0.0305353
0.0289624
0.0275924
0.0265259
0.0258195
0.0254376
0.0253597
0.0253862
0.0253655
0.0251371
0.0246232
0.0238694
0.0229694
0.0219861
0.0208481
0.0194131
0.0174551
0.0147839
0.0114343
0.0076991
0.00409084
0.00122198
-0.000445961
-0.000717781
0.000134057
0.00170932
0.0033221
0.00440124
0.00460456
0.00377918
0.00207243
-0.000196819
-0.00271372
-0.00517452
-0.00746478
-0.00949347
-0.011235
-0.0126545
-0.0136038
-0.0139506
-0.0135829
-0.0125108
-0.0109703
-0.00938073
-0.00819341
-0.00778327
-0.00828492
-0.00945615
-0.0107273
-0.0112748
-0.0102069
-0.00697681
-0.00138811
0.00621562
0.0150846
0.0242354
0.0329227
0.0406461
0.0473294
0.0533028
0.0590445
0.0649313
0.0710126
0.0770418
0.0824448
0.0865996
0.0890455
0.0895112
0.0879625
0.0845687
0.0796791
0.0737871
0.0677137
0.0625142
0.0593494
0.0589857
0.0614732
0.065837
0.0703067
0.0727256
0.0713342
0.0653951
0.0552057
0.0420199
0.0276174
0.0135522
0.000896348
-0.00993703
-0.0188738
-0.0261011
-0.0317549
-0.0359769
-0.0389801
-0.0410903
-0.0427662
-0.0443723
-0.0463153
-0.0486639
-0.0513022
-0.0539204
-0.0562149
-0.0578249
-0.0585451
-0.0582878
-0.0572391
-0.0557524
-0.0544385
-0.0542162
-0.0563162
-0.0621779
-0.0732452
-0.0906138
-0.114694
-0.144464
-0.176767
-0.205898
-0.223556
-0.219122
-0.18071
-0.0975988
0.0364437
0.219128
0.436496
0.661984
0.859457
0.990764
1.02618
0.953958
0.785458
0.553277
0.30219
0.0765292
-0.0919854
-0.190934
-0.226943
-0.219249
-0.190882
-0.160748
-0.139365
-0.129015
-0.127013
-0.129027
-0.131631
-0.133187
-0.133718
-0.133851
-0.13425
-0.135083
-0.136184
-0.137303
-0.138169
-0.138716
-0.139019
-0.139226
-0.139475
-0.139779
-0.139899
-0.139634
-0.138711
-0.137101
-0.134985
-0.132723
-0.130619
-0.128845
-0.127384
-0.125978
-0.124196
-0.121772
-0.118515
-0.114506
-0.109986
-0.105344
-0.100879
-0.096904
-0.0935267
-0.0908355
-0.0888863
-0.0877181
-0.0874419
-0.0880825
-0.0895478
-0.0915939
-0.0938416
-0.0957792
-0.0970877
-0.0975362
-0.0970457
-0.095672
-0.093651
-0.0912357
-0.0887349
-0.086395
-0.0843981
-0.0827266
-0.0812718
-0.0797117
-0.077814
-0.075449
-0.0726873
-0.0697844
-0.067153
-0.0651699
-0.0641171
-0.0641361
-0.0651778
-0.0671898
-0.069906
-0.0731087
-0.0764845
-0.0798588
-0.083016
-0.0858966
-0.0885361
-0.091046
-0.0934426
-0.095608
-0.0970845
-0.0972461
-0.0953199
-0.0906932
-0.0831002
-0.0728556
-0.0606382
-0.0474253
-0.0341523
-0.0214499
-0.00955068
0.00174634
0.0127162
0.0235901
0.0343328
0.0446689
0.0540733
0.0621563
0.0687012
0.0738208
0.0778625
0.0812362
0.0842883
0.0872218
0.0899489
0.0922556
0.0939496
0.0948332
0.0948592
0.0940766
0.0926307
0.0907143
0.0885092
0.0861969
0.0838068
0.0814362
0.0791042
0.0768532
0.0747925
0.0730592
0.0717191
0.0708654
0.0704844
0.0703974
0.0703645
0.0700779
0.0692204
0.0676343
0.0652819
0.0621716
0.0583938
0.0541342
0.0495501
0.0449199
0.0405524
0.0368145
0.0338985
0.0318799
0.030482
0.0291984
0.027489
0.0249398
0.0214689
0.0174001
0.0133327
0.00986448
0.0075292
0.00642582
0.00636203
0.00694635
0.00760701
0.00788282
0.00757683
0.00661646
0.00506681
0.00308813
0.000829377
-0.00160875
-0.00408501
-0.00642911
-0.00853809
-0.0102901
-0.0115804
-0.0124558
-0.0128664
-0.0128414
-0.0123224
-0.0113627
-0.0100066
-0.00840937
-0.006755
-0.00521312
-0.00394147
-0.00293058
-0.00233276
-0.0022241
-0.00273319
-0.0039605
-0.00603927
-0.00885496
-0.0121094
-0.015459
-0.0183841
-0.0205825
-0.0218947
-0.0223899
-0.0221856
-0.0216151
-0.0209157
-0.0201736
-0.0193682
-0.0182737
-0.016614
-0.0140641
-0.0103959
-0.00551344
0.00045888
0.00727721
0.0145447
0.0217765
0.0286327
0.034866
0.0403975
0.0453226
0.0499452
0.0544844
0.0591373
0.063947
0.0686223
0.0726796
0.0755898
0.0769139
0.0764249
0.0743414
0.0710695
0.067246
0.0634504
0.0602422
0.0580118
0.0571801
0.0580543
0.0606806
0.0646061
0.0687366
0.0713942
0.0707157
0.0652537
0.054381
0.0387421
0.0200454
0.000649473
-0.0170456
-0.0312965
-0.0413263
-0.0473564
-0.0503368
-0.0515038
-0.051953
-0.0524966
-0.053442
-0.0546681
-0.0558078
-0.0564674
-0.0564738
-0.0558576
-0.0549552
-0.0542056
-0.0538804
-0.0540835
-0.0547276
-0.0558241
-0.057567
-0.0604647
-0.0652981
-0.0728881
-0.0837788
-0.0983303
-0.116645
-0.138685
-0.164052
-0.191756
-0.219546
-0.243597
-0.25847
-0.257387
-0.232602
-0.175973
-0.0804202
0.0577947
0.235854
0.441607
0.652029
0.835527
0.957906
0.991712
0.925319
0.768379
0.550367
0.312819
0.0975022
-0.0649413
-0.161782
-0.198261
-0.19201
-0.164717
-0.134686
-0.112553
-0.101208
-0.0984292
-0.10028
-0.103244
-0.105404
-0.106337
-0.106428
-0.106149
-0.105823
-0.105642
-0.105617
-0.10572
-0.105794
-0.105575
-0.104761
-0.103137
-0.100578
-0.0971839
-0.0932516
-0.0892369
-0.0856269
-0.0828218
-0.0810986
-0.0804233
-0.0805054
-0.0809345
-0.0812042
-0.0808981
-0.0796366
-0.0772926
-0.0739776
-0.0699786
-0.0657179
-0.0617257
-0.0583933
-0.0559385
-0.0543975
-0.0535067
-0.0529886
-0.0525084
-0.0519129
-0.0511773
-0.050457
-0.0498565
-0.0494392
-0.0491457
-0.0488484
-0.048494
-0.0480511
-0.0475864
-0.0472476
-0.0471585
-0.0473741
-0.0477328
-0.0479514
-0.0478375
-0.0472563
-0.0462993
-0.0452314
-0.0443793
-0.0439514
-0.0440061
-0.0444224
-0.0449902
-0.0455488
-0.0460599
-0.046677
-0.0475985
-0.0489475
-0.0508083
-0.053065
-0.0554929
-0.057918
-0.0600635
-0.0617448
-0.0628548
-0.0633313
-0.0630555
-0.0619091
-0.0596536
-0.056011
-0.0505948
-0.0431754
-0.0337138
-0.0224808
-0.0100442
0.00280564
0.0153611
0.0270558
0.0374278
0.0463848
0.0539489
0.0602831
0.0655842
0.0701223
0.0741774
0.078
0.0817386
0.0853989
0.0887819
0.0915403
0.0933693
0.0939935
0.0932888
0.0914256
0.0886468
0.0853375
0.0818885
0.0786246
0.0758003
0.0736383
0.0722174
0.0715609
0.0714157
0.0713827
0.0710289
0.0700079
0.0681798
0.0657653
0.0631134
0.0606806
0.0586729
0.0570533
0.0554998
0.0536846
0.0513979
0.0487302
0.0459424
0.0434398
0.0413839
0.0396127
0.037766
0.0353597
0.0320582
0.0279772
0.0235635
0.0194203
0.016206
0.0142136
0.0133911
0.0133835
0.013704
0.0138709
0.0135559
0.0125553
0.0108798
0.00856182
0.00580362
0.00277453
-0.000301915
-0.0032221
-0.00583106
-0.00805602
-0.00972205
-0.0107652
-0.011086
-0.0106126
-0.00942801
-0.00780556
-0.00609609
-0.00479509
-0.0043885
-0.00522345
-0.00749502
-0.0110473
-0.0154134
-0.0199684
-0.0238496
-0.0264721
-0.0274709
-0.0269303
-0.0253405
-0.0234815
-0.0221958
-0.0221024
-0.0234512
-0.0260218
-0.0292257
-0.0322428
-0.0343746
-0.0351212
-0.0342757
-0.0321236
-0.0291776
-0.0260071
-0.0230717
-0.0206335
-0.018533
-0.0163554
-0.013506
-0.00953664
-0.00430191
0.00210391
0.00909593
0.0159993
0.0222188
0.0273799
0.0315374
0.0350975
0.0386338
0.0426512
0.0475086
0.0531649
0.0591765
0.0648787
0.0696257
0.0728749
0.0744303
0.0743818
0.0730649
0.0708065
0.0678603
0.0644214
0.0606882
0.0570501
0.0540554
0.0523076
0.0521695
0.0532957
0.0546736
0.0548768
0.0524176
0.0463945
0.0367742
0.0244734
0.0110728
-0.0016443
-0.0123655
-0.0203938
-0.02569
-0.0286445
-0.0299749
-0.0303144
-0.0304523
-0.0309618
-0.0323587
-0.0348064
-0.0382829
-0.042402
-0.0465529
-0.0501565
-0.0527269
-0.0540827
-0.0543914
-0.0539345
-0.0530497
-0.0519869
-0.0507509
-0.0492207
-0.0471658
-0.0445423
-0.0414808
-0.0385449
-0.0367636
-0.0376613
-0.04301
-0.0545033
-0.073333
-0.0997131
-0.131938
-0.165911
-0.194839
-0.209319
-0.197779
-0.148505
-0.0525745
0.0924217
0.278493
0.485503
0.682513
0.833633
0.906954
0.884195
0.767097
0.578184
0.354793
0.138548
-0.0363926
-0.151429
-0.205747
-0.212751
-0.192585
-0.164507
-0.141592
-0.128988
-0.125751
-0.127973
-0.131489
-0.133521
-0.133222
-0.130921
-0.127461
-0.123642
-0.119803
-0.11616
-0.112706
-0.109494
-0.106636
-0.104387
-0.102967
-0.102489
-0.102916
-0.103961
-0.10517
-0.106078
-0.106406
-0.106139
-0.105413
-0.10455
-0.103689
-0.102893
-0.102038
-0.100963
-0.0995813
-0.0979998
-0.0963946
-0.0950336
-0.0940294
-0.0933151
-0.0927501
-0.0919684
-0.0906598
-0.088568
-0.0855503
-0.0817185
-0.0774801
-0.073431
-0.0703393
-0.0688231
-0.069283
-0.07159
-0.0751134
-0.0787773
-0.0815831
-0.0827392
-0.0819904
-0.0796099
-0.0763158
-0.0729108
-0.0700513
-0.0681441
-0.0672498
-0.0672054
-0.0677026
-0.068378
-0.0689268
-0.0691319
-0.0689958
-0.0686714
-0.0686263
-0.0692948
-0.0709739
-0.0738685
-0.0777545
-0.0824015
-0.0874135
-0.0925945
-0.0979066
-0.103324
-0.10864
-0.113292
-0.116431
-0.117055
-0.114403
-0.108167
-0.0987418
-0.0870285
-0.0743011
-0.0617271
-0.0501998
-0.0401618
-0.0315706
-0.0242019
-0.0175579
-0.0111794
-0.00460417
0.00247204
0.010153
0.0184461
0.0272178
0.0363601
0.0457518
0.0552938
0.0648223
0.0739843
0.0822393
0.0889936
0.0936845
0.0960658
0.0963733
0.095095
0.0930596
0.0909869
0.0894608
0.0887046
0.0886031
0.0887869
0.0887956
0.0883656
0.0874329
0.086216
0.0852712
0.0851351
0.0861264
0.0882192
0.0909165
0.0933949
0.0948122
0.0945809
0.0925517
0.0890441
0.0847044
0.0800567
0.0755849
0.071394
0.0674078
0.0635302
0.0595777
0.0556652
0.0519268
0.0486173
0.0459484
0.0440645
0.0430483
0.0426546
0.0426035
0.042465
0.0417532
0.0402811
0.038147
0.0357908
0.0337957
0.0326243
0.0323578
0.0326801
0.0330487
0.0328904
0.0319338
0.0303457
0.0285901
0.0273177
0.0268385
0.02701
0.0274207
0.0272864
0.0260484
0.0235295
0.020139
0.0166261
0.0137652
0.0122333
0.0121686
0.0133335
0.0151344
0.0169027
0.018067
0.0183241
0.0175467
0.0158547
0.0134274
0.0105665
0.00756996
0.00476363
0.00238459
0.000627806
-0.000531816
-0.00136901
-0.00217746
-0.00332348
-0.0050374
-0.00721468
-0.00935586
-0.0106747
-0.0103628
-0.00772105
-0.00248592
0.00514751
0.0144259
0.0243773
0.0340374
0.0425994
0.0497828
0.0556303
0.0605549
0.065023
0.0694872
0.0740384
0.0784604
0.0822851
0.0849882
0.0861241
0.0855636
0.0835378
0.0804496
0.0768624
0.0731855
0.0696775
0.0666097
0.0642427
0.0631173
0.0637735
0.0666022
0.0713177
0.0769161
0.0816078
0.0833855
0.0807189
0.0729231
0.0604351
0.0446985
0.0275415
0.010633
-0.00479179
-0.0180559
-0.0288654
-0.0371079
-0.0428379
-0.0460763
-0.0471666
-0.0467194
-0.0455308
-0.0444248
-0.0440693
-0.0448664
-0.0466315
-0.0489613
-0.0513006
-0.0531692
-0.0543108
-0.054711
-0.0543902
-0.0534101
-0.0519337
-0.0502187
-0.048589
-0.0477467
-0.0485933
-0.0522648
-0.0599508
-0.0726461
-0.0909197
-0.114746
-0.14289
-0.172715
-0.199636
-0.216948
-0.215835
-0.185959
-0.117066
-0.00198324
0.159515
0.357212
0.568907
0.762275
0.901379
0.956023
0.910984
0.771922
0.564993
0.329833
0.108369
-0.0665395
-0.178503
-0.228857
-0.23222
-0.20904
-0.178107
-0.151816
-0.1353
-0.128175
-0.127386
-0.129628
-0.132547
-0.135086
-0.136961
-0.138211
-0.138848
-0.138889
-0.138419
-0.137549
-0.136436
-0.135266
-0.13414
-0.133075
-0.131937
-0.130537
-0.128745
-0.126489
-0.123842
-0.120998
-0.118245
-0.115756
-0.113606
-0.111768
-0.11011
-0.108532
-0.106914
-0.105235
-0.103555
-0.101968
-0.100609
-0.0995704
-0.0989302
-0.0986913
-0.0987849
-0.0990636
-0.0993926
-0.0995975
-0.0994879
-0.0987736
-0.0972488
-0.0948174
-0.0916081
-0.0879363
-0.0843858
-0.0815113
-0.0798044
-0.07941
-0.0802124
-0.0819057
-0.0840019
-0.0860744
-0.087883
-0.0891914
-0.0898913
-0.0899025
-0.0891955
-0.0877539
-0.0856557
-0.0829819
-0.0798798
-0.0766032
-0.0734521
-0.0707637
-0.0688551
-0.0680155
-0.0684291
-0.0700745
-0.0727471
-0.0762156
-0.0801094
-0.0842872
-0.0885736
-0.0929058
-0.0970543
-0.10053
-0.102758
-0.102955
-0.100529
-0.0952091
-0.0872118
-0.0773003
-0.0665341
-0.0561174
-0.0469988
-0.0397972
-0.0345501
-0.030756
-0.0275066
-0.0236836
-0.0182391
-0.0104672
-0.00016323
0.0123072
0.0260347
0.0400166
0.0531767
0.0648549
0.0747639
0.0831102
0.0901688
0.0961723
0.101232
0.105176
0.107866
0.109156
0.109185
0.108334
0.107099
0.105948
0.105206
0.105005
0.105196
0.105597
0.105985
0.106192
0.10621
0.106155
0.106133
0.106199
0.106307
0.106232
0.105687
0.104399
0.102247
0.099156
0.0953701
0.0911687
0.0869486
0.0830742
0.0797548
0.0770999
0.0749909
0.0731886
0.0713829
0.0693514
0.0668772
0.0639036
0.0604813
0.0566591
0.0526526
0.0486819
0.0450767
0.0420894
0.0398989
0.0384493
0.0375524
0.0367748
0.0357753
0.0343376
0.0324984
0.0305309
0.0288044
0.0276305
0.0270309
0.0267648
0.02643
0.0255868
0.0239996
0.0216876
0.0189329
0.016123
0.0136387
0.0116614
0.0101506
0.00909606
0.00826313
0.00766532
0.00732599
0.00725024
0.00748284
0.00798385
0.00854095
0.00895838
0.00897252
0.00844034
0.00728589
0.00556139
0.00337189
0.000858827
-0.0018256
-0.00456396
-0.00719774
-0.00959724
-0.0116142
-0.0131051
-0.0140005
-0.0142906
-0.0140872
-0.0135654
-0.0129797
-0.0125635
-0.0123757
-0.0124349
-0.0126134
-0.0125806
-0.0120559
-0.0108107
-0.00865771
-0.00551765
-0.00127625
0.00408763
0.010507
0.0177815
0.0255309
0.0332476
0.0405181
0.0470899
0.0530182
0.058627
0.064312
0.0703489
0.0766477
0.0828235
0.0881346
0.0918052
0.0933416
0.0924929
0.0894446
0.0847347
0.0791524
0.0735375
0.0687302
0.0655
0.064322
0.0652663
0.0677429
0.0704815
0.0717699
0.0699219
0.06372
0.0529681
0.0385364
0.0222692
0.00630455
-0.00747933
-0.0180953
-0.0254952
-0.0302965
-0.0335228
-0.035975
-0.0380615
-0.039786
-0.040864
-0.0410554
-0.0403481
-0.0391717
-0.0381071
-0.037687
-0.0382473
-0.0397273
-0.0417618
-0.043835
-0.0455019
-0.0464084
-0.0464563
-0.0456786
-0.0443132
-0.0427096
-0.041422
-0.0413071
-0.0436355
-0.0499295
-0.0616413
-0.0798538
-0.104691
-0.134916
-0.167421
-0.197004
-0.216347
-0.216624
-0.188134
-0.121399
-0.00966632
0.1482
0.344753
0.56189
0.771381
0.938986
1.0321
1.02873
0.925059
0.738091
0.502162
0.259709
0.0496512
-0.102402
-0.188797
-0.2183
-0.209868
-0.18441
-0.158343
-0.140333
-0.131978
-0.130617
-0.132551
-0.134806
-0.136036
-0.136285
-0.136063
-0.135852
-0.135864
-0.136174
-0.136718
-0.137507
-0.138518
-0.139648
-0.140707
-0.141433
-0.141578
-0.141011
-0.139685
-0.137757
-0.13549
-0.133202
-0.131135
-0.129428
-0.127994
-0.126628
-0.125095
-0.123069
-0.120361
-0.116989
-0.113038
-0.108827
-0.104614
-0.100646
-0.0971137
-0.0940072
-0.0913383
-0.0890877
-0.0872774
-0.0859794
-0.0852533
-0.0850932
-0.0853932
-0.085993
-0.0867324
-0.087435
-0.087994
-0.0883643
-0.0885436
-0.0885918
-0.088556
-0.0885008
-0.0883952
-0.0882859
-0.0880317
-0.0876097
-0.0869725
-0.0860093
-0.0847288
-0.0831532
-0.0812198
-0.0789323
-0.0763608
-0.0736236
-0.0710643
-0.0690991
-0.0681846
-0.068639
-0.0704954
-0.0733867
-0.0768027
-0.0801189
-0.0828822
-0.0849912
-0.0866355
-0.0879804
-0.0890921
-0.0896048
-0.0887137
-0.0854761
-0.0792137
-0.0697344
-0.0576313
-0.0441197
-0.0308048
-0.0190765
-0.00986743
-0.00344264
0.000581727
0.00278974
0.00392134
0.00449659
0.00494935
0.00563091
0.00690903
0.00915625
0.0128586
0.0182468
0.0252114
0.0334554
0.0424671
0.051631
0.0605133
0.0688113
0.0762093
0.0825442
0.0875941
0.091209
0.0932858
0.093876
0.0931993
0.0916405
0.0896262
0.0875536
0.0856658
0.0840947
0.08277
0.081576
0.0803371
0.0788719
0.0771203
0.0750776
0.0727924
0.0704309
0.0682362
0.0663658
0.0650064
0.0642787
0.0641516
0.0644616
0.0649373
0.0651787
0.064767
0.0634383
0.0611813
0.0583481
0.0556019
0.0536142
0.0529288
0.0536692
0.0554846
0.0577495
0.0597787
0.0611404
0.0617204
0.0618746
0.0620382
0.062726
0.0642733
0.0667578
0.0699498
0.0734779
0.0769157
0.079846
0.0819412
0.0830889
0.0834152
0.0833458
0.0833824
0.0839403
0.0851204
0.0866985
0.0880927
0.08864
0.087549
0.0842877
0.0785376
0.0702108
0.0595731
0.0471251
0.0336047
0.0197705
0.0064514
-0.00569691
-0.0163698
-0.0256726
-0.0338561
-0.0411692
-0.0478063
-0.0538272
-0.0591395
-0.0637595
-0.0677434
-0.0711743
-0.0740886
-0.0765077
-0.078193
-0.0790176
-0.0788239
-0.0776888
-0.0756936
-0.0732099
-0.0704911
-0.0677934
-0.0652765
-0.0629912
-0.06096
-0.0591259
-0.0573521
-0.0557542
-0.0545651
-0.054221
-0.0555307
-0.0596689
-0.0680357
-0.0820326
-0.102597
-0.129755
-0.162009
-0.195974
-0.225961
-0.244437
-0.242739
-0.211704
-0.143015
-0.0311425
0.124168
0.315395
0.525235
0.727119
0.888689
0.978847
0.976506
0.877754
0.698886
0.473076
0.241446
0.0416652
-0.101637
-0.181534
-0.207142
-0.197146
-0.172037
-0.147425
-0.13127
-0.124498
-0.12419
-0.126458
-0.128425
-0.128909
-0.128151
-0.126944
-0.126044
-0.125749
-0.126056
-0.126596
-0.126812
-0.126268
-0.124672
-0.122031
-0.118802
-0.115644
-0.113269
-0.112154
-0.112406
-0.11365
-0.115122
-0.115974
-0.115508
-0.113483
-0.109977
-0.105493
-0.100671
-0.0960541
-0.0920242
-0.0887724
-0.0864321
-0.0850077
-0.0845733
-0.0851416
-0.0865483
-0.0884926
-0.0904721
-0.0918394
-0.0922094
-0.0913373
-0.0894001
-0.0868353
-0.0841813
-0.0819101
-0.0802402
-0.0791181
-0.0782824
-0.0774256
-0.0763695
-0.0750548
-0.0736281
-0.0723713
-0.0715131
-0.0712262
-0.0715505
-0.072391
-0.0735047
-0.0746661
-0.0755713
-0.0760613
-0.0760309
-0.0754971
-0.0746167
-0.073671
-0.0728577
-0.0724929
-0.072671
-0.0733548
-0.0743371
-0.0753865
-0.0763089
-0.077066
-0.0778264
-0.0788431
-0.0802402
-0.0819451
-0.0835976
-0.0845421
-0.0840188
-0.0813607
-0.0761729
-0.0684879
-0.0587402
-0.0477269
-0.0364618
-0.0258816
-0.0167872
-0.00959404
-0.0044228
-0.00100673
0.00109226
0.00249675
0.00368524
0.00506661
0.00695749
0.009551
0.0129439
0.0171365
0.0220288
0.0273371
0.0327024
0.0377675
0.0422616
0.0462042
0.049796
0.0534833
0.0575197
0.0620506
0.0667529
0.071071
0.0744199
0.0762093
0.0761669
0.0742556
0.0707629
0.0662994
0.0616399
0.0576533
0.0551298
0.0546162
0.0560924
0.0590758
0.0626747
0.0658781
0.0678066
0.068092
0.0667476
0.0642545
0.0611738
0.0580481
0.0552589
0.0528561
0.0508564
0.0491593
0.0477395
0.0465728
0.045601
0.0446334
0.043354
0.0413202
0.0381217
0.0335299
0.0277169
0.0212478
0.0150658
0.0100352
0.00678021
0.00546207
0.0055538
0.00624945
0.0067019
0.00626368
0.00482375
0.00266318
0.000466902
-0.0012266
-0.00204947
-0.0019294
-0.00108591
6.48723e-5
0.00110622
0.00176681
0.00180971
0.00135456
0.000572464
-0.000263853
-0.000844366
-0.00108152
-0.00101134
-0.000837923
-0.000885234
-0.0014174
-0.00247435
-0.00396744
-0.00560759
-0.0071221
-0.0083202
-0.0092996
-0.010287
-0.0116558
-0.0136861
-0.0163617
-0.0194754
-0.0227039
-0.0256701
-0.0281203
-0.0299066
-0.030883
-0.0308934
-0.0297539
-0.0273713
-0.0238912
-0.0197884
-0.0156562
-0.0121633
-0.00977785
-0.00866658
-0.00860615
-0.00939127
-0.0107632
-0.0125168
-0.0146586
-0.0172158
-0.020088
-0.0231514
-0.0260794
-0.0285729
-0.0303422
-0.031135
-0.0308118
-0.0293842
-0.0270431
-0.0240754
-0.0210011
-0.0181598
-0.0158853
-0.0141974
-0.0127983
-0.0112793
-0.0091974
-0.00627799
-0.00265143
0.00121483
0.00457061
0.00676198
0.00739351
0.0064437
0.00436425
0.00171986
-0.000868445
-0.00300098
-0.00459727
-0.00575427
-0.00663061
-0.00730535
-0.00769294
-0.007678
-0.00717169
-0.00631131
-0.00537438
-0.00477601
-0.00472554
-0.0052166
-0.00597623
-0.00645086
-0.00611709
-0.00462051
-0.0019928
0.00142534
0.00499102
0.00804937
0.00998503
0.010554
0.00979358
0.00813303
0.00611996
0.00431912
0.0030514
0.0023865
0.00222244
0.00248927
0.00320119
0.00471661
0.00742236
0.011637
0.0173842
0.0242813
0.0315866
0.0385247
0.0445589
0.0495609
0.0539048
0.0581435
0.0629366
0.068556
0.0748609
0.0812714
0.0869442
0.0910266
0.0928674
0.0923406
0.089701
0.0856626
0.0811098
0.0767623
0.0729277
0.0693958
0.0657668
0.061653
0.057181
0.0529462
0.0498988
0.0488524
0.0499154
0.052334
0.0545674
0.0548568
0.051758
0.0446701
0.034033
0.0209477
0.00702564
-0.00629577
-0.0178053
-0.0267699
-0.0329222
-0.0364671
-0.0379083
-0.0382075
-0.0384218
-0.0395507
-0.0422524
-0.0465841
-0.0519524
-0.0574011
-0.0619349
-0.0648098
-0.0658821
-0.0655393
-0.0642703
-0.0627514
-0.0614531
-0.0606278
-0.0605075
-0.0614563
-0.0642891
-0.0700283
-0.0798758
-0.094741
-0.114911
-0.139497
-0.165863
-0.189448
-0.203884
-0.201294
-0.173079
-0.110929
-0.00871442
0.135192
0.315506
0.518304
0.72116
0.895601
1.01254
1.04914
0.995078
0.856452
0.654885
0.422454
0.193914
-0.00139766
-0.145256
-0.232568
-0.269631
-0.269822
-0.24844
-0.218808
-0.190068
-0.167051
-0.151087
-0.141506
-0.136738
-0.135406
-0.136418
-0.138995
-0.142479
-0.146191
-0.149501
-0.151842
-0.152946
-0.152727
-0.151357
-0.149223
-0.146614
-0.143761
-0.140773
-0.13774
-0.134808
-0.132153
-0.130019
-0.128525
-0.127732
-0.127394
-0.127224
-0.126794
-0.125833
-0.124156
-0.121773
-0.118791
-0.11547
-0.112025
-0.108777
-0.105933
-0.103758
-0.102304
-0.101459
-0.10094
-0.100419
-0.0995633
-0.0982925
-0.0968111
-0.095585
-0.0950781
-0.0955663
-0.0969732
-0.0988253
-0.100501
-0.101366
-0.101144
-0.0997441
-0.0974049
-0.0944854
-0.091286
-0.0879577
-0.0846368
-0.081337
-0.0782059
-0.0754746
-0.0733498
-0.0719901
-0.0714509
-0.0714849
-0.071752
-0.0718703
-0.0715357
-0.0707386
-0.0697526
-0.0690512
-0.069282
-0.0710505
-0.0746877
-0.0801205
-0.0869089
-0.0941255
-0.100556
-0.105102
-0.106876
-0.105511
-0.101267
-0.0949207
-0.0875301
-0.0801751
-0.0737103
-0.0685368
-0.0647489
-0.0621346
-0.0603754
-0.0591536
-0.0582385
-0.0574729
-0.0567
-0.055649
-0.0540247
-0.0515253
-0.047947
-0.0431728
-0.0372367
-0.030398
-0.0228169
-0.0146785
-0.00614287
0.00277669
0.0119821
0.0214662
0.0311202
0.0408284
0.0504552
0.0597627
0.0685232
0.0765946
0.0838707
0.090401
0.0964316
0.102065
0.107365
0.11226
0.116477
0.119618
0.121371
0.121583
0.120305
0.11781
0.11444
0.110636
0.106807
0.103258
0.100277
0.0980154
0.0965032
0.0955656
0.0949906
0.0944068
0.0934646
0.0920141
0.0900379
0.0876941
0.0852408
0.0829455
0.0809311
0.0793027
0.0779804
0.0767904
0.0756322
0.0743871
0.0730896
0.07177
0.0705651
0.0695235
0.0685334
0.0673507
0.0656363
0.0631089
0.0596125
0.055283
0.0505163
0.0457847
0.0416007
0.0383298
0.0361883
0.0351368
0.0350188
0.0355654
0.0364891
0.0375814
0.0385551
0.0392805
0.0395902
0.0394252
0.0386905
0.037478
0.0358612
0.0339896
0.0320757
0.0302886
0.0287022
0.0272844
0.0258362
0.0240165
0.0215195
0.0181898
0.0140734
0.00959825
0.0053335
0.00186327
-0.00044987
-0.0016218
-0.00190503
-0.00183462
-0.00189679
-0.00240506
-0.0033651
-0.00466221
-0.00608183
-0.00741375
-0.00853742
-0.00942242
-0.0100354
-0.0103495
-0.0104239
-0.0103639
-0.0102969
-0.010572
-0.0114143
-0.0128996
-0.0147237
-0.0162514
-0.0165334
-0.0147424
-0.0103139
-0.00338142
0.00533159
0.0147671
0.0237933
0.0317489
0.0385084
0.0443439
0.0497825
0.0551515
0.0605423
0.0657558
0.0704167
0.0740942
0.0765549
0.0777939
0.0778738
0.0768751
0.0747605
0.0715592
0.0673699
0.0626025
0.0579611
0.0544632
0.0529942
0.0540797
0.057272
0.0613574
0.0644658
0.0647477
0.060933
0.0527097
0.0407378
0.0264319
0.0114273
-0.00285781
-0.0154979
-0.0260814
-0.0344494
-0.0405108
-0.0442583
-0.0458532
-0.0455815
-0.0439785
-0.0417712
-0.039682
-0.0382592
-0.0378011
-0.0382771
-0.039434
-0.040884
-0.0423494
-0.0436362
-0.0447747
-0.0458329
-0.0468785
-0.0479037
-0.0488435
-0.0496346
-0.0503695
-0.0517165
-0.0549292
-0.061776
-0.0740162
-0.0929885
-0.118874
-0.149977
-0.182362
-0.209742
-0.223942
-0.215412
-0.17422
-0.0918196
0.0365497
0.20878
0.413128
0.627241
0.819973
0.956988
1.00931
0.96206
0.820183
0.608644
0.366317
0.135412
-0.049877
-0.171288
-0.228456
-0.235192
-0.212369
-0.179981
-0.151984
-0.134671
-0.128035
-0.128718
-0.132751
-0.136997
-0.139875
-0.140975
-0.140614
-0.139259
-0.137327
-0.135149
-0.132807
-0.130162
-0.126976
-0.123136
-0.118719
-0.113958
-0.109331
-0.105235
-0.102048
-0.0998604
-0.0985554
-0.0978759
-0.0974448
-0.0970403
-0.0964918
-0.0957776
-0.0949137
-0.0940154
-0.0931686
-0.0924242
-0.0917022
-0.0909092
-0.0898831
-0.0885855
-0.087106
-0.0856627
-0.0845641
-0.0839676
-0.0838896
-0.0841256
-0.0842955
-0.0841108
-0.08329
-0.0819312
-0.0802822
-0.0785217
-0.0768067
-0.0751143
-0.0733407
-0.0714223
-0.0694598
-0.0677303
-0.066642
-0.0665906
-0.0676073
-0.0695212
-0.0719261
-0.0742203
-0.0759625
-0.076833
-0.0768169
-0.0761523
-0.0752256
-0.0745151
-0.0743884
-0.0750089
-0.0762435
-0.0778226
-0.0794919
-0.0810739
-0.0825331
-0.0840231
-0.0856617
-0.0874252
-0.0890943
-0.0902349
-0.0903959
-0.0891269
-0.0861315
-0.0811442
-0.0741697
-0.0653621
-0.0551828
-0.0444513
-0.0340643
-0.0250136
-0.0179189
-0.0128464
-0.00929021
-0.00629274
-0.0028124
0.00206002
0.00867129
0.0169423
0.0263417
0.0362318
0.0459922
0.0551247
0.0633357
0.0704673
0.0764111
0.0811688
0.0847855
0.0874569
0.0894996
0.0913032
0.0931798
0.0953322
0.0977695
0.100341
0.102761
0.104789
0.106214
0.106895
0.10681
0.105956
0.104401
0.102231
0.0995463
0.0965532
0.0935248
0.0906186
0.0879942
0.085693
0.0836064
0.0815813
0.0796018
0.0776169
0.0757179
0.0739926
0.0725278
0.0712204
0.0699392
0.0684622
0.0666215
0.0643767
0.061787
0.0589277
0.0559836
0.053119
0.0503219
0.0476078
0.0448908
0.0420745
0.0392064
0.0363632
0.0336007
0.0311224
0.0289746
0.0271145
0.0254409
0.023825
0.0220388
0.0199271
0.0175869
0.0151665
0.0129616
0.0112654
0.0102508
0.00985091
0.00980322
0.00964266
0.00895241
0.007532
0.00534648
0.00260007
-0.000336277
-0.00313941
-0.00554883
-0.00743192
-0.0087273
-0.00948971
-0.00968132
-0.00944713
-0.00890602
-0.00820145
-0.00745017
-0.00679098
-0.00635706
-0.0060783
-0.0059733
-0.00591579
-0.00587791
-0.00576642
-0.00558536
-0.00538778
-0.00524047
-0.00515986
-0.00525846
-0.00557494
-0.0061435
-0.00694526
-0.0078375
-0.00865579
-0.00920423
-0.00940817
-0.00931927
-0.00914388
-0.00910681
-0.00924745
-0.00933735
-0.00877377
-0.00683413
-0.00289601
0.00346321
0.0120544
0.0221517
0.0327233
0.0428109
0.051646
0.0589469
0.0648887
0.0699602
0.0746589
0.079254
0.0835421
0.0870857
0.0892296
0.0894836
0.0877161
0.0840781
0.0792001
0.0738955
0.069095
0.0656519
0.064315
0.065478
0.0689314
0.073791
0.0786641
0.0817406
0.0814104
0.0767665
0.0677681
0.0553385
0.0409558
0.0261881
0.0122772
-9.29468e-5
-0.0107535
-0.0197473
-0.0270732
-0.0327444
-0.0366537
-0.0389425
-0.0399545
-0.0401339
-0.0400803
-0.0403802
-0.0413214
-0.0428731
-0.0447753
-0.0465584
-0.0476907
-0.0476604
-0.0462682
-0.0435664
-0.0400201
-0.0363809
-0.0337963
-0.0338747
-0.0384498
-0.0493833
-0.0680471
-0.0948621
-0.128484
-0.165167
-0.19849
-0.219441
-0.217105
-0.179601
-0.0966937
0.0369036
0.217923
0.431407
0.650184
0.838388
0.959231
0.985189
0.907098
0.738378
0.512329
0.272801
0.0616462
-0.0925859
-0.180293
-0.209734
-0.200368
-0.17396
-0.147636
-0.130232
-0.123099
-0.123185
-0.126449
-0.129877
-0.132097
-0.133222
-0.133838
-0.134435
-0.135285
-0.1363
-0.137302
-0.138045
-0.13837
-0.138153
-0.137436
-0.136348
-0.135013
-0.133535
-0.131839
-0.129832
-0.127413
-0.12454
-0.121313
-0.117978
-0.114753
-0.111836
-0.109331
-0.107241
-0.105547
-0.104182
-0.103052
-0.102018
-0.100876
-0.099394
-0.0973393
-0.0947034
-0.0916681
-0.0886497
-0.0860425
-0.0842241
-0.0831955
-0.0826069
-0.0819619
-0.080758
-0.0787124
-0.0759059
-0.072716
-0.0696772
-0.0671973
-0.0655756
-0.0648533
-0.0648223
-0.0652595
-0.0659585
-0.066745
-0.0675731
-0.0684316
-0.0692999
-0.0701166
-0.0707484
-0.0711156
-0.0711666
-0.0709521
-0.0705726
-0.0701991
-0.0698253
-0.069403
-0.0689474
-0.0684471
-0.0680245
-0.0680239
-0.0687294
-0.0703996
-0.072959
-0.0761557
-0.0793843
-0.0819038
-0.0830313
-0.0820758
-0.078693
-0.0726527
-0.0640835
-0.0534517
-0.0414625
-0.0290945
-0.0172366
-0.00655646
0.00273344
0.0108555
0.0182008
0.0252592
0.0321929
0.0387987
0.0446964
0.0494217
0.0528702
0.0554335
0.0578003
0.0608552
0.0651504
0.0708568
0.0775445
0.08444
0.0907287
0.0957425
0.0992754
0.10133
0.102057
0.10161
0.100002
0.0972943
0.0936666
0.0895301
0.0854583
0.0820276
0.0796281
0.0783136
0.0778321
0.0777457
0.0775895
0.0771184
0.0761547
0.0746214
0.072615
0.0702596
0.0677607
0.065358
0.0632999
0.0617958
0.0609521
0.0606942
0.0606857
0.0605274
0.059777
0.0580382
0.0552049
0.0513566
0.0468809
0.0423719
0.0384184
0.0354789
0.0337049
0.0328731
0.032458
0.0318752
0.0306013
0.0282902
0.0250956
0.0213629
0.0175728
0.014188
0.0114523
0.00932262
0.007672
0.00632849
0.00513607
0.00410266
0.00338297
0.00313527
0.0034657
0.00429665
0.00538422
0.00636186
0.00684272
0.00654034
0.00538717
0.00353494
0.00130466
-0.00093585
-0.00289118
-0.00443803
-0.00564425
-0.00665633
-0.00774588
-0.00897336
-0.0102272
-0.0112792
-0.011726
-0.0111307
-0.00930724
-0.00640217
-0.00288399
0.00039478
0.00265106
0.00318649
0.00185718
-0.000960958
-0.00456752
-0.00805438
-0.0107993
-0.0124337
-0.0130911
-0.0130577
-0.0126043
-0.0116177
-0.00963406
-0.00604445
-0.000374648
0.00742951
0.0169434
0.0272578
0.0373452
0.0464351
0.0542953
0.0611723
0.0676069
0.0741538
0.0810253
0.0879804
0.0942701
0.0990732
0.101573
0.10129
0.0982488
0.0929179
0.0863575
0.0796685
0.0740922
0.0706543
0.0700235
0.0720853
0.0759398
0.0798729
0.081927
0.0803157
0.0740001
0.0630587
0.0486219
0.0325836
0.0168573
0.00300782
-0.0080765
-0.0161993
-0.021671
-0.0250223
-0.0267782
-0.0274893
-0.0276012
-0.0274369
-0.0272431
-0.0270861
-0.0271607
-0.0276203
-0.0286105
-0.0303338
-0.032851
-0.0360424
-0.0395834
-0.0428343
-0.045198
-0.0462751
-0.0460569
-0.0450733
-0.044445
-0.0458841
-0.0512771
-0.0623745
-0.0803196
-0.105288
-0.135994
-0.169045
-0.198866
-0.217536
-0.215208
-0.18094
-0.104814
0.0186849
0.18711
0.386974
0.593327
0.772905
0.891198
0.92189
0.85521
0.702137
0.492237
0.265723
0.0619426
-0.0909105
-0.181625
-0.215638
-0.209636
-0.183746
-0.154883
-0.13289
-0.120417
-0.11552
-0.114599
-0.114628
-0.114063
-0.112677
-0.111003
-0.1096
-0.108758
-0.108567
-0.109104
-0.110326
-0.112121
-0.114231
-0.116269
-0.117729
-0.118266
-0.117755
-0.116324
-0.114298
-0.112047
-0.109771
-0.107361
-0.104648
-0.101356
-0.0974137
-0.0930728
-0.0887208
-0.0848614
-0.0818927
-0.0799896
-0.0791082
-0.0790718
-0.0795641
-0.0803544
-0.0812098
-0.0819391
-0.0824779
-0.0828243
-0.0831102
-0.0834181
-0.0839062
-0.0844206
-0.0846657
-0.0841548
-0.0824347
-0.0792442
-0.0747013
-0.0693035
-0.063864
-0.059253
-0.0561608
-0.054973
-0.0557073
-0.0580813
-0.0615063
-0.0653228
-0.0688853
-0.0715895
-0.0730283
-0.0730462
-0.071727
-0.0694014
-0.0665541
-0.0636346
-0.0610971
-0.0591734
-0.0580373
-0.0578801
-0.0588977
-0.0613404
-0.0651826
-0.0701885
-0.0758261
-0.0813624
-0.0860425
-0.0892765
-0.0907018
-0.0900241
-0.0870648
-0.081621
-0.0736787
-0.063461
-0.0515032
-0.0387343
-0.0261548
-0.0146691
-0.00478674
0.00338826
0.0102198
0.01618
0.021854
0.0275822
0.0335031
0.0395271
0.045426
0.0510413
0.0561848
0.0608398
0.0651434
0.0691911
0.0731271
0.0769249
0.0804833
0.0835563
0.0858998
0.0873461
0.0877962
0.0874406
0.0864974
0.0852629
0.0839029
0.0823999
0.0805095
0.0779874
0.074585
0.0703097
0.0654595
0.0604419
0.055835
0.0520724
0.04945
0.0479036
0.0472237
0.0469775
0.0467396
0.0461307
0.0449178
0.0431688
0.0411141
0.0391273
0.0375207
0.0364703
0.0359724
0.0357749
0.0354353
0.034545
0.0326715
0.0296479
0.0254722
0.0204284
0.0150681
0.0099738
0.00574036
0.0027494
0.000999467
0.000236859
-5.40594e-5
-0.000350586
-0.00106946
-0.00222776
-0.0037295
-0.00525104
-0.00647836
-0.00723076
-0.00749643
-0.00741984
-0.00719948
-0.00711419
-0.00733828
-0.00809063
-0.00932722
-0.010837
-0.0122238
-0.013044
-0.0128604
-0.0115728
-0.00948353
-0.00712872
-0.00526522
-0.00443673
-0.00482193
-0.00611543
-0.00779834
-0.00915173
-0.00980037
-0.00975681
-0.00938639
-0.00923329
-0.00977785
-0.0111004
-0.0130309
-0.0151599
-0.0171197
-0.0186158
-0.0195124
-0.0195548
-0.0184246
-0.0157776
-0.0112294
-0.00474243
0.00328996
0.01222
0.0212996
0.0298688
0.0376487
0.0446997
0.0512369
0.0574142
0.0632699
0.0684613
0.0726455
0.0753671
0.076357
0.0754503
0.0727383
0.0684019
0.0628864
0.0567352
0.0506947
0.0456997
0.0425171
0.0415009
0.0423745
0.0442003
0.0454428
0.0445277
0.0402498
0.0321048
0.0205059
0.00671499
-0.00756204
-0.0205756
-0.0308674
-0.03759
-0.0406428
-0.0405987
-0.0385402
-0.0357956
-0.0336542
-0.0329236
-0.0339003
-0.0364118
-0.0399664
-0.0439665
-0.0479002
-0.051514
-0.0546746
-0.0573021
-0.0592604
-0.0603487
-0.0603734
-0.0592987
-0.0572854
-0.0548109
-0.0528274
-0.0526312
-0.055761
-0.0637431
-0.0778403
-0.0987306
-0.125786
-0.156336
-0.185293
-0.204901
-0.204904
-0.173799
-0.101241
0.018682
0.183632
0.380278
0.583869
0.761549
0.879424
0.911637
0.848397
0.699909
0.494512
0.271055
0.0679532
-0.0866478
-0.180718
-0.218443
-0.215298
-0.190951
-0.162519
-0.140655
-0.12891
-0.12588
-0.127747
-0.130663
-0.132102
-0.131293
-0.128605
-0.124969
-0.121337
-0.118342
-0.116216
-0.114797
-0.113732
-0.112781
-0.111884
-0.111104
-0.11071
-0.110908
-0.111702
-0.112891
-0.114164
-0.115165
-0.115772
-0.115921
-0.115739
-0.115318
-0.114764
-0.114004
-0.112883
-0.111217
-0.108863
-0.105867
-0.102416
-0.0988618
-0.095605
-0.0929797
-0.0912414
-0.0904239
-0.090425
-0.0908996
-0.0915066
-0.0919435
-0.0919565
-0.0915238
-0.0907125
-0.0897219
-0.0887595
-0.0880393
-0.0875423
-0.0872134
-0.086879
-0.0863172
-0.085317
-0.0836922
-0.0813975
-0.0784887
-0.0753177
-0.0722385
-0.0696844
-0.0679195
-0.0669611
-0.0666753
-0.06674
-0.0669305
-0.0672229
-0.0678911
-0.0693021
-0.0718306
-0.0755812
-0.080392
-0.0858308
-0.0914468
-0.0968814
-0.10197
-0.106881
-0.111663
-0.116237
-0.120079
-0.122325
-0.122006
-0.118365
-0.111222
-0.100911
-0.0884874
-0.0753184
-0.0627144
-0.051773
-0.0430284
-0.0364318
-0.0314561
-0.0272132
-0.022758
-0.0173377
-0.0104633
-0.00219556
0.00708052
0.0168321
0.0265132
0.0357565
0.0443223
0.0522478
0.059556
0.0663734
0.0727424
0.0786874
0.084165
0.0890751
0.0932963
0.0966119
0.0989457
0.100351
0.100924
0.100939
0.100751
0.100627
0.100757
0.101136
0.101641
0.102143
0.10237
0.102173
0.101419
0.0999275
0.0976273
0.0944948
0.0906894
0.0865068
0.0822972
0.0783404
0.074873
0.0719618
0.069557
0.0675746
0.0659163
0.0645503
0.0634202
0.0624808
0.0615947
0.060643
0.0594686
0.0580163
0.0562852
0.0543856
0.0524566
0.0506186
0.0490676
0.0479301
0.0472362
0.0469538
0.046946
0.0469657
0.0467511
0.0460167
0.044545
0.0422745
0.0393136
0.0358536
0.0322562
0.0287771
0.02566
0.0229759
0.0207548
0.018883
0.0173176
0.0160251
0.0150643
0.0144444
0.0143009
0.0145727
0.0151233
0.0157444
0.0161688
0.0162328
0.0159121
0.0153131
0.0145294
0.0136634
0.0125903
0.0110406
0.00873668
0.00557478
0.00165928
-0.00250586
-0.00636103
-0.00932544
-0.0110888
-0.0116351
-0.0112618
-0.0103567
-0.00930859
-0.00834692
-0.00761343
-0.00704705
-0.00665229
-0.00638195
-0.00620677
-0.00613207
-0.00603505
-0.00583879
-0.00537027
-0.00451909
-0.0031814
-0.00136507
0.000998613
0.00394051
0.00752709
0.0117808
0.0166892
0.0221543
0.0280257
0.034095
0.040172
0.0461001
0.0518307
0.0573947
0.062867
0.0683
0.0736564
0.0787802
0.0833037
0.0868558
0.0889514
0.0894035
0.0882014
0.085766
0.0825836
0.0791729
0.0758883
0.0729391
0.0702228
0.0676588
0.0652597
0.0633248
0.0623599
0.0628425
0.0648564
0.0676964
0.0700777
0.0702646
0.0667912
0.0588252
0.0466528
0.0314564
0.0150558
-0.000714604
-0.0144537
-0.0255349
-0.03371
-0.0392135
-0.0422918
-0.0433648
-0.0428001
-0.0410061
-0.0385098
-0.0357967
-0.0332882
-0.0314006
-0.0303729
-0.0303774
-0.0315197
-0.0338171
-0.0372282
-0.0413364
-0.0456109
-0.049277
-0.0516851
-0.0523962
-0.0514407
-0.0493078
-0.0469033
-0.0454141
-0.0461347
-0.0503849
-0.0594292
-0.0741358
-0.095028
-0.121735
-0.152369
-0.182925
-0.206906
-0.215731
-0.199138
-0.146655
-0.0500414
0.0938017
0.279636
0.491702
0.703865
0.882881
0.995342
1.01643
0.937848
0.77158
0.54788
0.307418
0.090096
-0.0751943
-0.176514
-0.218789
-0.218516
-0.196264
-0.169634
-0.149188
-0.138355
-0.135579
-0.137339
-0.140241
-0.14223
-0.142637
-0.141666
-0.13987
-0.13775
-0.135739
-0.134139
-0.132945
-0.131951
-0.13079
-0.129128
-0.126679
-0.123444
-0.119677
-0.115747
-0.112024
-0.108769
-0.105964
-0.103463
-0.101066
-0.0986149
-0.0962088
-0.0939689
-0.0921886
-0.0910417
-0.0905052
-0.0903625
-0.0902662
-0.0898252
-0.0888095
-0.0872949
-0.0855398
-0.0839097
-0.0827896
-0.0822743
-0.0822224
-0.0822961
-0.0821624
-0.0816333
-0.0807301
-0.0796451
-0.0786375
-0.0778526
-0.077368
-0.0771244
-0.0770174
-0.0769737
-0.0769408
-0.076954
-0.0770554
-0.0772497
-0.0775484
-0.0778814
-0.0781586
-0.0782559
-0.0779786
-0.0771413
-0.075708
-0.0737411
-0.0714365
-0.0692041
-0.0674063
-0.0663616
-0.066283
-0.0671919
-0.0690049
-0.0715581
-0.0746591
-0.0782703
-0.0822131
-0.0863083
-0.0903374
-0.0938223
-0.0961826
-0.0967989
-0.0950992
-0.0907199
-0.0835957
-0.0741631
-0.0631622
-0.0516073
-0.040617
-0.0310208
-0.0231232
-0.0167061
-0.0110049
-0.00500408
0.00222612
0.011097
0.0214364
0.0325789
0.0435735
0.0534814
0.0616514
0.0679945
0.0727209
0.0762708
0.0792017
0.0818265
0.084302
0.0866814
0.0888421
0.0906421
0.0920404
0.0930469
0.0937735
0.0943717
0.0949626
0.0955256
0.0959248
0.0959796
0.0953962
0.0941185
0.0921103
0.0895353
0.0867629
0.0840946
0.0818277
0.080171
0.0791686
0.0787166
0.078576
0.0783337
0.0774699
0.0756384
0.0726762
0.0686568
0.0639897
0.0592547
0.0549441
0.0515076
0.0490489
0.0473897
0.0462324
0.0451682
0.0438546
0.0420165
0.0396604
0.0368774
0.0338604
0.0308974
0.0282483
0.0261709
0.0247202
0.0238909
0.0235469
0.0234084
0.0231829
0.0225572
0.0213445
0.0194231
0.0168162
0.013616
0.0100587
0.00643965
0.0030812
0.000219823
-0.00202521
-0.00371321
-0.00498393
-0.00609963
-0.00722807
-0.00846026
-0.00977673
-0.0111677
-0.0125448
-0.0137424
-0.0147009
-0.0153068
-0.0154097
-0.0150293
-0.0142873
-0.0133467
-0.0125423
-0.0121361
-0.0123186
-0.0131728
-0.0146419
-0.0165439
-0.0187322
-0.0210064
-0.0231986
-0.0252488
-0.0270384
-0.0284319
-0.0293804
-0.029791
-0.0296388
-0.0289699
-0.0278595
-0.0264282
-0.0247195
-0.0228725
-0.0208498
-0.0186958
-0.0165296
-0.0144544
-0.0126353
-0.0112193
-0.010303
-0.00988724
-0.0098963
-0.010056
-0.0100165
-0.00933898
-0.0074106
-0.00384254
0.00158249
0.0087577
0.0170719
0.0256677
0.0336542
0.0404156
0.0456583
0.0497125
0.0531811
0.0567938
0.0610526
0.0661467
0.0716465
0.0768413
0.0809245
0.0832619
0.083623
0.0821377
0.0793437
0.0759034
0.0725086
0.0696653
0.0677359
0.0670385
0.0677701
0.0700401
0.0735186
0.0772494
0.079823
0.0795492
0.0750541
0.0656855
0.051989
0.0353937
0.0179133
0.00150017
-0.0124722
-0.0234729
-0.0316619
-0.0375842
-0.0418885
-0.0451234
-0.0476628
-0.049628
-0.0511393
-0.0522134
-0.0529303
-0.0534512
-0.0539003
-0.0544055
-0.0550232
-0.0557316
-0.0563817
-0.0567784
-0.0566806
-0.055906
-0.0544859
-0.0527117
-0.0512426
-0.0511597
-0.053726
-0.0599535
-0.0701906
-0.0839932
-0.100041
-0.116957
-0.133857
-0.150751
-0.168483
-0.188051
-0.209345
-0.230316
-0.246384
-0.250994
-0.23629
-0.194296
-0.117899
-0.00259507
0.151509
0.337417
0.53946
0.733139
0.888292
0.975388
0.973627
0.878366
0.704126
0.481892
0.25096
0.0484186
-0.100568
-0.187328
-0.218814
-0.212177
-0.187193
-0.159874
-0.139459
-0.128302
-0.124606
-0.12487
-0.126202
-0.126913
-0.126716
-0.12585
-0.124675
-0.123382
-0.122071
-0.120662
-0.119113
-0.117316
-0.115216
-0.112891
-0.11041
-0.107924
-0.105521
-0.103286
-0.101171
-0.0990868
-0.0969836
-0.0948205
-0.0926682
-0.0906636
-0.0889456
-0.0878056
-0.0873233
-0.0874919
-0.0880957
-0.08877
-0.0890281
-0.0883948
-0.0866858
-0.0838392
-0.0802271
-0.076302
-0.0725268
-0.0692987
-0.0668215
-0.0651794
-0.0644455
-0.064575
-0.0654942
-0.0669363
-0.0685061
-0.0697883
-0.0704336
-0.0704474
-0.0699738
-0.0695848
-0.0696902
-0.0704148
-0.0714563
-0.0722324
-0.0721268
-0.0708725
-0.0686853
-0.0663755
-0.0648277
-0.0647218
-0.0661457
-0.0686037
-0.0712295
-0.0731482
-0.0738907
-0.0734337
-0.0721604
-0.070646
-0.0694226
-0.0689215
-0.0694199
-0.0710434
-0.0738938
-0.0778346
-0.0824495
-0.0869467
-0.0902777
-0.0913168
-0.0891225
-0.083297
-0.0740409
-0.0622463
-0.0492271
-0.0364015
-0.0249431
-0.0156887
-0.00878433
-0.00393037
-0.000456656
0.00246689
0.00567446
0.009771
0.0149834
0.0212062
0.0281079
0.0352115
0.0420853
0.0484867
0.0543706
0.0600235
0.065552
0.0710826
0.0764536
0.0813124
0.0851596
0.0876563
0.088578
0.08815
0.0867345
0.0848457
0.0829162
0.08125
0.0799521
0.0791182
0.0788317
0.0792347
0.0804283
0.0823252
0.0845985
0.0867038
0.0879247
0.0875802
0.0852899
0.0810311
0.0752732
0.0686573
0.0621043
0.0564121
0.0521558
0.0495661
0.0484976
0.0484253
0.0487821
0.0487611
0.0478818
0.0458613
0.0427996
0.0391356
0.0354182
0.0321122
0.0296051
0.0279342
0.0269325
0.02636
0.0259828
0.025571
0.024953
0.0239119
0.0222886
0.0199824
0.0170401
0.0137049
0.0103162
0.00717572
0.00445023
0.00208958
-8.15936e-5
-0.00228525
-0.00467567
-0.00718538
-0.00968794
-0.0118495
-0.0134367
-0.0143305
-0.0144761
-0.0139734
-0.0130548
-0.0119337
-0.0108777
-0.0101385
-0.00985709
-0.0101757
-0.0111157
-0.012576
-0.0142829
-0.0159493
-0.0172444
-0.017942
-0.0180296
-0.0176976
-0.0174063
-0.0175713
-0.0186087
-0.0205961
-0.0234497
-0.0267096
-0.0297976
-0.0321834
-0.0335259
-0.0336878
-0.0328271
-0.0312238
-0.0292591
-0.0273289
-0.0256966
-0.0244142
-0.0233429
-0.0220524
-0.0199259
-0.0163004
-0.0107361
-0.00318651
0.00584073
0.0153151
0.0240575
0.0311105
0.0361464
0.0394241
0.0418401
0.0445037
0.0482865
0.0535204
0.0598619
0.0663373
0.0718643
0.075572
0.0770448
0.0765142
0.0745406
0.0718682
0.069013
0.0661122
0.0630485
0.0597281
0.0563266
0.0535204
0.0521337
0.0528011
0.0554183
0.0591027
0.0622667
0.0632441
0.0608599
0.0549489
0.0462105
0.0358076
0.024928
0.0142049
0.00381724
-0.00630909
-0.0161816
-0.0256087
-0.0340855
-0.0411732
-0.0465945
-0.0504211
-0.0530337
-0.0548592
-0.0562691
-0.0574417
-0.0584104
-0.0591323
-0.0595647
-0.0597051
-0.0596689
-0.0595987
-0.059511
-0.0593524
-0.0589609
-0.058161
-0.056999
-0.0559687
-0.0561328
-0.0591336
-0.066871
-0.0809391
-0.102209
-0.130218
-0.162709
-0.195343
-0.221907
-0.234637
-0.224504
-0.182237
-0.100153
0.0253238
0.190835
0.383659
0.581296
0.754076
0.871157
0.908244
0.854919
0.718691
0.523989
0.305684
0.0998984
-0.0651386
-0.175039
-0.230123
-0.241855
-0.227146
-0.20209
-0.178109
-0.160791
-0.151088
-0.147163
-0.146372
-0.146472
-0.146121
-0.144769
-0.142348
-0.139166
-0.135718
-0.132579
-0.130218
-0.128908
-0.128554
-0.128823
-0.129198
-0.129237
-0.128559
-0.126986
-0.124505
-0.121293
-0.11753
-0.113511
-0.109433
-0.10561
-0.102285
-0.0997707
-0.0982684
-0.0979329
-0.0986793
-0.100209
-0.102118
-0.1039
-0.105171
-0.105682
-0.105422
-0.10459
-0.103468
-0.102321
-0.101409
-0.100824
-0.100556
-0.100419
-0.100167
-0.09942
-0.0979607
-0.0956798
-0.0926855
-0.0893164
-0.0860355
-0.0832599
-0.0813706
-0.0804261
-0.0803014
-0.0806505
-0.0810836
-0.0812604
-0.0810366
-0.0804116
-0.0795229
-0.0785966
-0.0778264
-0.0772769
-0.0768728
-0.0763725
-0.0755552
-0.0743
-0.0726947
-0.0710329
-0.0697387
-0.0692386
-0.0697932
-0.0714833
-0.0742218
-0.0777917
-0.0820058
-0.0865229
-0.0908593
-0.0943216
-0.0960041
-0.0950594
-0.0909138
-0.0835469
-0.0736233
-0.0623709
-0.0512546
-0.0415953
-0.0343352
-0.0297165
-0.0273285
-0.0263272
-0.0255275
-0.0238441
-0.020375
-0.0148133
-0.00734729
0.00135609
0.0104053
0.0189923
0.0267256
0.0336825
0.040405
0.0474831
0.0553257
0.0637983
0.0723056
0.0799438
0.0859576
0.0899217
0.0918467
0.0920724
0.0911449
0.0894831
0.0875125
0.0855503
0.0838804
0.082795
0.0824678
0.0829415
0.0840213
0.0853428
0.0865738
0.087373
0.0875397
0.0869713
0.085647
0.0835513
0.0807444
0.0773135
0.0734787
0.0695554
0.0658555
0.0627131
0.060329
0.0586344
0.057532
0.0568622
0.0565036
0.0564787
0.0568413
0.0576218
0.0586495
0.0595979
0.0600088
0.0594141
0.0575085
0.0542855
0.0498845
0.0446613
0.0389754
0.0332476
0.0277779
0.0228666
0.0188366
0.0159137
0.0141345
0.0133361
0.013213
0.0133916
0.013505
0.0134645
0.0132756
0.0131012
0.0130447
0.0130971
0.0130869
0.0127518
0.0119192
0.010539
0.00876337
0.00687971
0.00504292
0.00329247
0.00151324
-0.000397092
-0.00249311
-0.00476329
-0.00699696
-0.00887939
-0.0101711
-0.0107023
-0.0104388
-0.0094853
-0.00799236
-0.00617917
-0.0043335
-0.00273704
-0.00165791
-0.00134912
-0.0018851
-0.00323217
-0.00516211
-0.00740548
-0.00961552
-0.0114771
-0.0127537
-0.0133934
-0.0134016
-0.0128783
-0.0119698
-0.0109105
-0.00997654
-0.00922463
-0.00855391
-0.00772186
-0.00630465
-0.00387286
-0.000173984
0.00478632
0.0107577
0.0173038
0.0240413
0.030685
0.0371849
0.043749
0.0506469
0.0580609
0.0658675
0.0735965
0.0806164
0.0861505
0.0895937
0.0906673
0.0894349
0.0861872
0.0813772
0.0755038
0.0692057
0.0631126
0.058042
0.0547981
0.0536893
0.0543659
0.0557455
0.0562661
0.0543278
0.0488698
0.0396808
0.0275644
0.0139498
0.000499798
-0.0114394
-0.0210436
-0.0281128
-0.0327958
-0.0356681
-0.0372836
-0.0382487
-0.0390871
-0.0401233
-0.0414886
-0.0431053
-0.0447865
-0.0463417
-0.0476169
-0.0486261
-0.0494452
-0.0500938
-0.0505427
-0.0507055
-0.0504083
-0.0495914
-0.0482531
-0.0465518
-0.0448074
-0.0434432
-0.0431406
-0.0448418
-0.0497385
-0.0590664
-0.0738741
-0.0945031
-0.120207
-0.148599
-0.175329
-0.194137
-0.197189
-0.175679
-0.120874
-0.0259866
0.111282
0.286098
0.484531
0.683311
0.85265
0.962085
0.988193
0.921759
0.771685
0.563753
0.33418
0.119968
-0.0502996
-0.162495
-0.217749
-0.228772
-0.213337
-0.188067
-0.164317
-0.147171
-0.13691
-0.131569
-0.128713
-0.126809
-0.125389
-0.124593
-0.124557
-0.12516
-0.126138
-0.127143
-0.127992
-0.128576
-0.128913
-0.129169
-0.129465
-0.129875
-0.13045
-0.131044
-0.131501
-0.131516
-0.13086
-0.129363
-0.127153
-0.124481
-0.121711
-0.119164
-0.116964
-0.114967
-0.112967
-0.110758
-0.108247
-0.105558
-0.102916
-0.10061
-0.0987559
-0.0973
-0.0959583
-0.0945099
-0.0928829
-0.0911669
-0.0896858
-0.0888045
-0.0887526
-0.0896082
-0.0911206
-0.0929838
-0.0947852
-0.0961866
-0.0969727
-0.097163
-0.0968807
-0.0963534
-0.0958587
-0.0955405
-0.0954555
-0.0954449
-0.0952312
-0.0946287
-0.0935642
-0.0920302
-0.0901609
-0.0880189
-0.0856984
-0.0832028
-0.0807805
-0.0787219
-0.0774264
-0.0772908
-0.0785124
-0.080967
-0.0843161
-0.0880471
-0.0917962
-0.0954503
-0.0990226
-0.102513
-0.105814
-0.108492
-0.109862
-0.109272
-0.106251
-0.10072
-0.0931267
-0.0841376
-0.0746433
-0.0653895
-0.0568354
-0.0491622
-0.0422415
-0.0357618
-0.0292857
-0.0224109
-0.0148565
-0.00650511
0.00256062
0.012068
0.0215757
0.0305214
0.0384585
0.0451873
0.0507412
0.0553939
0.0596807
0.0640509
0.0686947
0.073584
0.0784405
0.0829354
0.0868198
0.0899634
0.092499
0.094507
0.0960845
0.0971884
0.0977894
0.0977985
0.0972799
0.0963193
0.0950226
0.0935353
0.091845
0.0899253
0.0877228
0.0852585
0.0825726
0.079775
0.0769793
0.0743001
0.071736
0.0693096
0.0671292
0.0653175
0.0640031
0.0631938
0.0627635
0.0624354
0.0617981
0.0605664
0.0585871
0.0559367
0.0528632
0.0497377
0.0468459
0.0444626
0.0426545
0.0413767
0.0404301
0.0394432
0.0380682
0.0361358
0.0336446
0.0308847
0.0283649
0.0265694
0.0258902
0.0264718
0.0281031
0.0303646
0.0327364
0.0346563
0.0356858
0.0356091
0.0343845
0.032238
0.0294153
0.0262529
0.0229893
0.0197401
0.0166434
0.0137467
0.0112275
0.00917204
0.0076337
0.00662389
0.00600819
0.00549896
0.00491757
0.00414005
0.00315911
0.00206769
0.000954681
-7.22874e-5
-0.00100796
-0.00186266
-0.00273398
-0.00355588
-0.00423599
-0.00464181
-0.00455553
-0.00390951
-0.00274777
-0.00131808
4.05238e-6
0.0008134
0.000814117
-5.90927e-5
-0.00163685
-0.00353755
-0.0052121
-0.00614145
-0.00583998
-0.00394458
-0.000230614
0.00532925
0.0124703
0.0206863
0.0292904
0.0374792
0.0447023
0.0507527
0.0559295
0.0607797
0.0659588
0.0719131
0.078611
0.0855818
0.0920617
0.0972515
0.100551
0.10164
0.100561
0.0975868
0.0932306
0.0881075
0.0828574
0.0783064
0.0751063
0.0736968
0.0738992
0.0748603
0.0751686
0.0732603
0.067918
0.0587291
0.0462585
0.0317775
0.0169404
0.00318029
-0.00859807
-0.0180898
-0.0252117
-0.0301519
-0.0329867
-0.0338996
-0.0332732
-0.0315789
-0.0296198
-0.0280723
-0.0275361
-0.0284043
-0.0305611
-0.0337678
-0.0374448
-0.041033
-0.0440186
-0.0460923
-0.0471658
-0.0473641
-0.0469165
-0.0461634
-0.0453993
-0.0447157
-0.0444392
-0.0451865
-0.0480776
-0.0546597
-0.0666388
-0.0852468
-0.110589
-0.140644
-0.170705
-0.193606
-0.199753
-0.178365
-0.11905
-0.0142107
0.13768
0.329235
0.5421
0.747712
0.911734
1.00181
0.996594
0.893074
0.70886
0.478387
0.243428
0.0417234
-0.102624
-0.183239
-0.20959
-0.200524
-0.176469
-0.152964
-0.137907
-0.132307
-0.133249
-0.13665
-0.13952
-0.140525
-0.139776
-0.137996
-0.135901
-0.133931
-0.13217
-0.130508
-0.128808
-0.127
-0.125189
-0.123534
-0.122188
-0.121248
-0.120583
-0.120138
-0.119696
-0.119073
-0.118173
-0.117007
-0.115565
-0.113868
-0.111954
-0.109988
-0.108087
-0.106422
-0.105045
-0.103886
-0.102634
-0.101009
-0.0987085
-0.0955712
-0.0917286
-0.0874641
-0.0832152
-0.0794884
-0.0766273
-0.0749213
-0.0743743
-0.0748384
-0.0760345
-0.0775555
-0.0789653
-0.0798691
-0.0800104
-0.0792837
-0.077865
-0.0762044
-0.0747981
-0.0739978
-0.0739635
-0.0745075
-0.0751733
-0.0754411
-0.0748946
-0.0733268
-0.0708626
-0.0679158
-0.0648883
-0.0622277
-0.0600884
-0.0586197
-0.0577957
-0.0575267
-0.0578536
-0.0589149
-0.0608376
-0.0637435
-0.0675647
-0.0721125
-0.0769201
-0.0815027
-0.0853147
-0.0877255
-0.0881699
-0.0861612
-0.0814403
-0.0738859
-0.0638472
-0.0518956
-0.0388671
-0.0256637
-0.013009
-0.00132808
0.00923649
0.0189486
0.0279951
0.0367593
0.0454276
0.0540141
0.0624555
0.0705457
0.0780239
0.0846571
0.0902351
0.0946536
0.0977523
0.0996215
0.100407
0.100303
0.099579
0.0983909
0.0969904
0.0953756
0.0936589
0.091933
0.0902697
0.0887364
0.087316
0.0860808
0.0851069
0.0844307
0.0841246
0.0842243
0.0845771
0.0849812
0.0849636
0.084136
0.0821669
0.0790643
0.0750511
0.0706504
0.0664779
0.0629766
0.0603272
0.0584308
0.0569631
0.0555455
0.0539297
0.0520467
0.05005
0.0481304
0.0464422
0.0450268
0.0438127
0.0427098
0.041598
0.0403705
0.0390605
0.0376401
0.0361497
0.0345675
0.0329437
0.0312237
0.0294499
0.0275715
0.0256186
0.0234356
0.0209495
0.0180284
0.0146511
0.0109537
0.00718429
0.0037786
0.00103017
-0.000776498
-0.00163428
-0.00167374
-0.00121975
-0.000539286
0.000176668
0.000776491
0.00124227
0.00157703
0.00173607
0.00178706
0.0017542
0.00171418
0.00168071
0.00169736
0.00161994
0.00123331
0.000254869
-0.00150639
-0.00414869
-0.00744973
-0.0109775
-0.0142876
-0.0168827
-0.0185662
-0.0192943
-0.0192645
-0.0186614
-0.0177247
-0.0166065
-0.015468
-0.0143349
-0.013112
-0.0115197
-0.00903608
-0.00494894
0.00123448
0.00974891
0.0201463
0.0314588
0.0423159
0.0514901
0.0581233
0.0620916
0.0639507
0.0647519
0.0655984
0.067365
0.0705069
0.0748267
0.0797733
0.084485
0.0881334
0.0900859
0.0900211
0.087996
0.0843851
0.0796455
0.0742397
0.0685246
0.0628648
0.0576365
0.0535017
0.0511755
0.0513424
0.0540732
0.0586481
0.0634304
0.0664151
0.0656404
0.0599074
0.0491371
0.0343887
0.0174381
0.000209607
-0.0155893
-0.0288726
-0.0391194
-0.0463123
-0.0507555
-0.0529525
-0.053584
-0.0534724
-0.0533287
-0.0537557
-0.0551222
-0.057446
-0.0604137
-0.0635464
-0.0661782
-0.0677582
-0.0678996
-0.0664946
-0.0637666
-0.060334
-0.0572055
-0.0558439
-0.0579579
-0.065302
-0.0793306
-0.100713
-0.128953
-0.161847
-0.19508
-0.222071
-0.234117
-0.221052
-0.172406
-0.0798848
0.0592494
0.238938
0.442127
0.641247
0.802682
0.894565
0.895741
0.802967
0.633085
0.41908
0.200869
0.0142009
-0.118337
-0.191016
-0.213023
-0.20217
-0.177362
-0.152823
-0.135717
-0.126953
-0.124009
-0.123602
-0.123556
-0.123022
-0.122303
-0.121946
-0.122206
-0.122992
-0.12399
-0.124923
-0.125643
-0.126133
-0.126459
-0.126639
-0.12653
-0.126022
-0.124949
-0.123259
-0.120999
-0.118347
-0.115445
-0.11236
-0.109125
-0.10562
-0.101726
-0.0974685
-0.0929498
-0.0884255
-0.0842664
-0.0808523
-0.0783997
-0.0769911
-0.0764913
-0.0765195
-0.076707
-0.0766368
-0.0761575
-0.0753338
-0.074398
-0.0737061
-0.0735795
-0.0740882
-0.0750103
-0.0759626
-0.0764643
-0.076074
-0.0746449
-0.0722909
-0.0693164
-0.0661337
-0.0631554
-0.0605803
-0.0584584
-0.0566344
-0.0548546
-0.0529281
-0.0508112
-0.0486467
-0.0466605
-0.0451662
-0.0443587
-0.0443457
-0.0450381
-0.0462669
-0.0479226
-0.0499823
-0.0524554
-0.0553671
-0.0587133
-0.0623213
-0.0659145
-0.0691787
-0.0718046
-0.0735956
-0.0744632
-0.0744596
-0.0736061
-0.0717991
-0.0687555
-0.0642038
-0.0579686
-0.0500879
-0.0409749
-0.0312712
-0.0217837
-0.0131812
-0.00587136
0.00010296
0.00495978
0.00903039
0.0126184
0.0159734
0.0192084
0.0223332
0.0254381
0.028617
0.0319949
0.035726
0.0398979
0.0444688
0.0493825
0.0544518
0.0595226
0.0643254
0.0686126
0.0721619
0.0748913
0.0768056
0.0780861
0.0789725
0.0797176
0.0804895
0.0813769
0.0823072
0.0831535
0.0836949
0.0837138
0.0828925
0.0809358
0.077761
0.0734466
0.0683101
0.0628416
0.0575277
0.0527165
0.0485654
0.0450429
0.0420766
0.0395956
0.0375503
0.0359162
0.0345877
0.0334768
0.0324048
0.0312066
0.0297066
0.0278503
0.025677
0.0232818
0.0208824
0.0187339
0.0170902
0.016081
0.0157531
0.0159765
0.0165565
0.0172134
0.0177411
0.0178443
0.0173432
0.0159492
0.0135151
0.00998282
0.00560961
0.000843202
-0.00361831
-0.00718964
-0.00942372
-0.0102162
-0.00977736
-0.00859378
-0.00713349
-0.00581902
-0.00497476
-0.0047509
-0.00520642
-0.00631443
-0.00797118
-0.0100621
-0.0123596
-0.0145754
-0.0164612
-0.0178362
-0.0185827
-0.0186527
-0.0182654
-0.0176384
-0.0171617
-0.0170602
-0.0174602
-0.0182774
-0.0192746
-0.0200952
-0.0203509
-0.0198781
-0.0186841
-0.0169036
-0.0149347
-0.0132232
-0.0122567
-0.0123358
-0.0134086
-0.0150159
-0.016343
-0.0163013
-0.0139554
-0.00887532
-0.00126006
0.00804816
0.0177085
0.0264289
0.0332324
0.0376762
0.0401798
0.0415213
0.0427819
0.0448625
0.0482137
0.0526828
0.0576224
0.062187
0.065681
0.0677474
0.0685567
0.0685142
0.0682231
0.0680998
0.0682097
0.0684366
0.0685788
0.0686238
0.0685766
0.0684197
0.0677583
0.0658326
0.0616466
0.0541736
0.042949
0.0282915
0.0113036
-0.00619953
-0.022293
-0.0354155
-0.0446841
-0.0499639
-0.0518861
-0.051462
-0.0498827
-0.0481879
-0.0471077
-0.0468323
-0.0472427
-0.0479445
-0.0485217
-0.0487273
-0.0483783
-0.0475359
-0.0463505
-0.0451095
-0.0441116
-0.0437512
-0.0447882
-0.0482905
-0.0555596
-0.0677987
-0.0858745
-0.109641
-0.137489
-0.166239
-0.191301
-0.207322
-0.208942
-0.191485
-0.150793
-0.0832868
0.0139438
0.142363
0.300485
0.482053
0.674534
0.859052
1.01221
1.11011
1.13381
1.07451
0.936729
0.738178
0.506695
0.274057
0.0690274
-0.0883719
-0.190015
-0.239424
-0.248715
-0.233618
-0.209105
-0.186184
-0.17074
-0.163943
-0.163945
-0.167588
-0.171867
-0.174673
-0.174986
-0.17297
-0.169437
-0.165607
-0.162564
-0.160933
-0.160639
-0.161094
-0.161369
-0.16059
-0.158465
-0.155306
-0.151862
-0.149121
-0.147729
-0.147717
-0.148519
-0.14925
-0.149041
-0.147645
-0.145396
-0.143081
-0.141558
-0.141383
-0.142349
-0.143818
-0.144912
-0.144825
-0.143339
-0.140662
-0.137363
-0.13394
-0.130665
-0.12747
-0.124128
-0.120477
-0.116662
-0.11313
-0.110596
-0.109651
-0.11053
-0.113066
-0.116459
-0.119736
-0.122085
-0.122939
-0.122373
-0.12083
-0.118902
-0.11705
-0.115497
-0.114125
-0.1126
-0.110672
-0.108143
-0.105099
-0.101848
-0.0987742
-0.0965619
-0.0957554
-0.096772
-0.0999184
-0.105178
-0.112336
-0.120903
-0.130366
-0.139993
-0.148966
-0.156496
-0.161696
-0.163881
-0.162698
-0.158089
-0.150389
-0.140163
-0.128125
-0.114877
-0.101016
-0.0869937
-0.0731992
-0.0600035
-0.0476758
-0.0363225
-0.0259032
-0.0161181
-0.00649631
0.00328841
0.0136214
0.0245818
0.0359718
0.0473486
0.0581468
0.0676295
0.0753114
0.0808958
0.0844419
0.0863852
0.0873228
0.0878499
0.0884411
0.0891741
0.0899697
0.0905376
0.0906599
0.0901925
0.0891652
0.0877423
0.0861019
0.0844308
0.0828645
0.0815712
0.0806395
0.0801858
0.0802091
0.080523
0.0808958
0.0810529
0.0807458
0.0798348
0.0781964
0.07584
0.072774
0.0690164
0.0647479
0.0601988
0.0556622
0.0515933
0.048419
0.0463178
0.0452604
0.0449243
0.044782
0.0442455
0.0429052
0.0405146
0.0371296
0.0330266
0.0286574
0.0246121
0.021387
0.019399
0.0189108
0.0197862
0.0217292
0.0242045
0.026598
0.0284045
0.029305
0.0292037
0.0280941
0.0261172
0.0234621
0.0202968
0.0168562
0.0133566
0.0100537
0.00717474
0.00494751
0.00347783
0.0028447
0.00304551
0.00396607
0.00539862
0.0070309
0.00848739
0.00922494
0.00883475
0.0070305
0.00390291
-0.000151786
-0.00446889
-0.00831499
-0.0110489
-0.012431
-0.0125456
-0.0118347
-0.0109479
-0.0103054
-0.0101767
-0.0105783
-0.0112383
-0.0119136
-0.0123576
-0.0123649
-0.011681
-0.00999489
-0.00691317
-0.00215611
0.00445537
0.0127152
0.0219545
0.0313218
0.0399799
0.0474339
0.0536594
0.0589551
0.0639386
0.0691199
0.0745914
0.0800943
0.0848985
0.0881589
0.0892687
0.08788
0.0843111
0.0792419
0.0735157
0.0680136
0.063398
0.0600878
0.0583846
0.0584325
0.0601468
0.0632087
0.0668172
0.0697708
0.0707306
0.0684725
0.0623064
0.0522677
0.0390448
0.0239304
0.00829504
-0.00667144
-0.0199677
-0.0309977
-0.0394414
-0.0451745
-0.048266
-0.0490449
-0.0480424
-0.0459684
-0.0435214
-0.0413138
-0.0396648
-0.0385689
-0.0377948
-0.0370196
-0.036085
-0.0350386
-0.0340443
-0.033259
-0.0327956
-0.0325454
-0.0323643
-0.0323443
-0.0330119
-0.0356952
-0.0422334
-0.0545677
-0.0743081
-0.101889
-0.135611
-0.171257
-0.201767
-0.217533
-0.207173
-0.15903
-0.0638658
0.0817346
0.271727
0.488319
0.702247
0.87735
0.978819
0.982995
0.885371
0.703075
0.471272
0.233142
0.0279094
-0.119152
-0.201162
-0.227517
-0.217374
-0.191287
-0.164914
-0.146189
-0.136353
-0.13272
-0.131857
-0.131316
-0.130207
-0.128821
-0.127685
-0.127224
-0.127316
-0.127644
-0.1277
-0.127158
-0.125737
-0.123497
-0.120703
-0.117582
-0.11451
-0.111701
-0.109321
-0.107408
-0.106044
-0.105342
-0.105278
-0.105821
-0.106745
-0.107576
-0.107774
-0.106864
-0.104619
-0.101186
-0.0969913
-0.092665
-0.0889549
-0.0862959
-0.0848455
-0.0844867
-0.0848677
-0.0855258
-0.0862047
-0.0867177
-0.0871733
-0.0876778
-0.0883647
-0.0892661
-0.0902869
-0.0911841
-0.091773
-0.091833
-0.0913141
-0.0901543
-0.0884289
-0.0862588
-0.083774
-0.0811721
-0.0785885
-0.0761761
-0.0740957
-0.0724307
-0.0711255
-0.0700792
-0.0692791
-0.0686522
-0.0682567
-0.0682875
-0.0688975
-0.0702864
-0.0724568
-0.0753979
-0.0789488
-0.0828681
-0.0868556
-0.0908371
-0.0946562
-0.098272
-0.101704
-0.104888
-0.10761
-0.109501
-0.110021
-0.108423
-0.104184
-0.0969151
-0.086695
-0.0740871
-0.0600242
-0.0456452
-0.0318672
-0.0193844
-0.00828581
0.00168007
0.0108937
0.0198029
0.028522
0.0370356
0.0451624
0.0528074
0.0599021
0.0665528
0.0727727
0.078531
0.0837578
0.0882769
0.0919742
0.0948122
0.0968402
0.0980736
0.0986663
0.0986467
0.0981386
0.0974068
0.0966092
0.0960494
0.0958844
0.0962919
0.09712
0.0982434
0.0993592
0.100155
0.100342
0.0995818
0.0977648
0.0948962
0.0912376
0.0872566
0.0836132
0.0808006
0.0790706
0.0782556
0.0777764
0.0769291
0.0751499
0.0723275
0.0687092
0.0649962
0.0618056
0.0595051
0.0580977
0.0571355
0.0560183
0.0542634
0.051706
0.0485565
0.0454325
0.0428585
0.0412089
0.040585
0.0406032
0.0407035
0.0403605
0.0392474
0.0373104
0.0348043
0.0320398
0.0292212
0.0265067
0.0238931
0.0214545
0.0192389
0.0174055
0.0160893
0.0154019
0.0153257
0.0157306
0.0163721
0.0170428
0.0175416
0.017767
0.017637
0.0170559
0.0160402
0.01461
0.0127091
0.0104865
0.00812054
0.00588276
0.00418203
0.00333161
0.00356932
0.00483072
0.00675331
0.00881244
0.010436
0.0111454
0.0106828
0.00906563
0.00652364
0.00342049
0.000128557
-0.003007
-0.0056028
-0.00738795
-0.00824915
-0.00826309
-0.00779826
-0.0073035
-0.0072495
-0.00782904
-0.0086542
-0.00885576
-0.00730256
-0.00294806
0.00467678
0.015308
0.027799
0.0405433
0.0520386
0.0612074
0.0678037
0.0723871
0.0759962
0.0797017
0.0840808
0.0890427
0.0938579
0.0974789
0.0990153
0.0980413
0.0947433
0.0897655
0.084016
0.0781924
0.0727492
0.0678938
0.0638912
0.0610017
0.0597373
0.0604681
0.0631183
0.066864
0.0702272
0.0714431
0.0690172
0.0622593
0.0515476
0.0381819
0.0239758
0.0105518
-0.00102886
-0.0104838
-0.0181394
-0.024575
-0.030311
-0.0356372
-0.0405898
-0.0449403
-0.0485357
-0.0512914
-0.053306
-0.0547554
-0.0559858
-0.057145
-0.0583367
-0.0595969
-0.0609177
-0.0622039
-0.0633894
-0.0643835
-0.0650092
-0.0650361
-0.0642995
-0.0627573
-0.0606342
-0.058507
-0.0575312
-0.0592362
-0.0654104
-0.0776564
-0.0969554
-0.123112
-0.154325
-0.186841
-0.214737
-0.23045
-0.22523
-0.189783
-0.115457
0.00356049
0.167664
0.368966
0.589292
0.800717
0.969367
1.0628
1.05884
0.953026
0.761717
0.518887
0.26711
0.046266
-0.116431
-0.211619
-0.246577
-0.239485
-0.211458
-0.179903
-0.154993
-0.139851
-0.133108
-0.131561
-0.132261
-0.133469
-0.134594
-0.135558
-0.136479
-0.137403
-0.138295
-0.139211
-0.140089
-0.140858
-0.141454
-0.141778
-0.141687
-0.141097
-0.139921
-0.138165
-0.1359
-0.133232
-0.130343
-0.127392
-0.124445
-0.121516
-0.118471
-0.115247
-0.111712
-0.107909
-0.103983
-0.100132
-0.0966415
-0.0937145
-0.0916351
-0.0906616
-0.090883
-0.0921873
-0.0942414
-0.096494
-0.0983384
-0.0992288
-0.0989586
-0.0977305
-0.0959216
-0.0940853
-0.0926009
-0.091636
-0.0911399
-0.0908365
-0.0906628
-0.0905054
-0.0903842
-0.0902417
-0.0899927
-0.0894893
-0.088476
-0.0868642
-0.0846378
-0.0820769
-0.0795155
-0.0773404
-0.0758443
-0.0751314
-0.075181
-0.0758157
-0.0767664
-0.0778561
-0.0789794
-0.0800008
-0.0810869
-0.0823367
-0.0840092
-0.0862896
-0.0892794
-0.0928738
-0.0966473
-0.0999164
-0.101848
-0.101645
-0.0987369
-0.0928471
-0.0841963
-0.0733734
-0.0611929
-0.0486404
-0.0366984
-0.0261677
-0.0176822
-0.0115531
-0.00783902
-0.0062718
-0.00638183
-0.00748027
-0.00877132
-0.00961739
-0.00932444
-0.00751805
-0.00398606
0.00127849
0.00804524
0.0159182
0.0243898
0.0328802
0.0408585
0.0479916
0.0541696
0.0595068
0.0642581
0.0687807
0.07328
0.0778815
0.0824714
0.0868183
0.0906169
0.0935335
0.0953846
0.0961074
0.0958579
0.0949357
0.0936358
0.0922379
0.0907944
0.0893267
0.0877413
0.0859405
0.0839619
0.0818683
0.079783
0.0778119
0.0759441
0.0741796
0.0723347
0.0703126
0.0680585
0.0656566
0.0633697
0.0614887
0.0603366
0.0600227
0.0604244
0.0610953
0.0614192
0.0608267
0.0589485
0.0556551
0.0511719
0.0459808
0.0406577
0.0356303
0.031263
0.0276846
0.0248725
0.0227357
0.021107
0.0197864
0.018598
0.0173116
0.0158229
0.0140378
0.0120068
0.00984181
0.00769326
0.0056382
0.00372621
0.00194337
0.00028345
-0.0011355
-0.00201129
-0.00205217
-0.00104109
0.000996411
0.00377321
0.00659561
0.00863511
0.00919626
0.00786475
0.00468886
0.000237631
-0.00469153
-0.00928577
-0.0129597
-0.0155784
-0.0173186
-0.018621
-0.0199248
-0.0214532
-0.0231675
-0.02489
-0.0263332
-0.0274269
-0.0282115
-0.0288527
-0.0294881
-0.0302426
-0.0309901
-0.0315782
-0.0317939
-0.0315309
-0.0307678
-0.0295761
-0.0279939
-0.0260639
-0.0238519
-0.0213803
-0.0188073
-0.0162952
-0.0140061
-0.0119224
-0.0100238
-0.00811397
-0.00602449
-0.00369892
-0.00111012
0.00171159
0.00471519
0.00799181
0.0117592
0.0162274
0.0214661
0.0274642
0.0338862
0.0403186
0.0463573
0.0517425
0.0564531
0.0606945
0.0646754
0.0685776
0.0724463
0.0760186
0.0790155
0.0811899
0.0823756
0.0825959
0.0818907
0.0803034
0.077883
0.0746923
0.0709153
0.0670135
0.063715
0.0619432
0.0623494
0.0649887
0.0690452
0.0727966
0.0742234
0.0715008
0.0636901
0.0510803
0.034976
0.0174616
0.00057839
-0.0141783
-0.0260495
-0.0349016
-0.04101
-0.044806
-0.0467045
-0.0472514
-0.0469859
-0.0465376
-0.046423
-0.0469477
-0.0481193
-0.0496466
-0.0510409
-0.0519045
-0.0520397
-0.0515771
-0.0508502
-0.0502438
-0.0500779
-0.05035
-0.0508202
-0.0512816
-0.0514546
-0.0514135
-0.0514389
-0.0522536
-0.0549924
-0.0611708
-0.0724108
-0.0900324
-0.114573
-0.14513
-0.178735
-0.210124
-0.232184
-0.236659
-0.215051
-0.159537
-0.0642791
0.0726452
0.247055
0.446641
0.650129
0.829007
0.952481
0.994963
0.943699
0.804159
0.599957
0.367449
0.145734
-0.0334548
-0.152952
-0.212076
-0.223295
-0.205507
-0.176979
-0.15046
-0.131853
-0.121582
-0.117274
-0.116066
-0.115938
-0.115982
-0.11606
-0.116177
-0.116289
-0.116387
-0.116522
-0.116823
-0.117339
-0.118135
-0.11899
-0.119648
-0.119909
-0.119727
-0.119141
-0.118203
-0.11694
-0.115198
-0.112773
-0.109591
-0.105786
-0.10176
-0.09798
-0.0949285
-0.0928849
-0.0918316
-0.0914941
-0.0915489
-0.091581
-0.0913351
-0.0907016
-0.0896375
-0.0882134
-0.086572
-0.0849263
-0.0834557
-0.0823747
-0.0818143
-0.0817589
-0.0821353
-0.0828669
-0.0838441
-0.0849233
-0.0861054
-0.087228
-0.0880909
-0.0883787
-0.0877677
-0.0860851
-0.0833851
-0.079963
-0.0764129
-0.0732294
-0.0707283
-0.0690347
-0.0679147
-0.0671234
-0.0664336
-0.0657407
-0.0650685
-0.0645999
-0.0644482
-0.0648441
-0.0660466
-0.0681604
-0.0713793
-0.0756113
-0.0806063
-0.0858853
-0.0907657
-0.0946633
-0.0971337
-0.0979697
-0.0971524
-0.0948356
-0.09114
-0.0860715
-0.0795904
-0.0717782
-0.0628058
-0.0530442
-0.0431851
-0.033886
-0.0257924
-0.0193779
-0.0147266
-0.0115504
-0.00935468
-0.00734716
-0.00478037
-0.00115057
0.00391884
0.0103699
0.0178193
0.0257584
0.033649
0.0410329
0.0477067
0.0536804
0.0590791
0.0642178
0.0693851
0.0746885
0.0800881
0.0853088
0.0899302
0.0934629
0.0955014
0.0957563
0.0942121
0.091041
0.0866297
0.0815582
0.0764903
0.0719867
0.0684807
0.0661597
0.0647811
0.0639688
0.0632947
0.062364
0.0609995
0.0591921
0.0570286
0.0545575
0.0518486
0.048912
0.0459293
0.0431914
0.0411693
0.0403516
0.0409673
0.0428813
0.0456047
0.048259
0.0498278
0.0496052
0.0472073
0.0427988
0.0370542
0.0309314
0.02541
0.0212262
0.018648
0.0174518
0.0169991
0.0165352
0.0154148
0.0133865
0.0106775
0.00787989
0.00575785
0.00484836
0.00530222
0.00687655
0.00896141
0.010808
0.0118818
0.012014
0.0113261
0.0102866
0.00933884
0.00873988
0.00848315
0.00830563
0.00779365
0.00666613
0.00490527
0.00271243
0.000452193
-0.00161814
-0.00323728
-0.00441284
-0.00530493
-0.00616286
-0.00713998
-0.00838162
-0.00986675
-0.0113978
-0.0126243
-0.0131485
-0.0126634
-0.0110613
-0.00861371
-0.00588995
-0.00359989
-0.0023716
-0.0024398
-0.00368195
-0.00562323
-0.00760745
-0.00900446
-0.00940178
-0.00858869
-0.0066468
-0.00370085
0.000190099
0.00486725
0.0102306
0.0161148
0.0222742
0.028334
0.0340784
0.0392436
0.0438626
0.0481294
0.0524141
0.0571116
0.0623996
0.0681559
0.0738877
0.0789996
0.08272
0.0846207
0.0845929
0.0829201
0.0800042
0.0763174
0.0722328
0.0679963
0.0639453
0.0606759
0.0587729
0.0587334
0.0604351
0.0629343
0.0646628
0.0638079
0.0588051
0.0490483
0.0350064
0.018129
0.0003154
-0.0166281
-0.0313391
-0.0429781
-0.0512973
-0.0565687
-0.0591321
-0.0596109
-0.0587646
-0.0573731
-0.0560121
-0.0550924
-0.0546094
-0.0542491
-0.0535295
-0.0521638
-0.0500959
-0.047661
-0.0454042
-0.0437779
-0.043087
-0.0432984
-0.0440848
-0.0451068
-0.0461296
-0.0473975
-0.0494503
-0.0530246
-0.0588301
-0.0674165
-0.0790031
-0.0937064
-0.111686
-0.13315
-0.157886
-0.184544
-0.209947
-0.228581
-0.232538
-0.212108
-0.157099
-0.0595073
0.0835068
0.266608
0.473932
0.679391
0.850315
0.954263
0.96788
0.884352
0.716771
0.495646
0.260883
0.050837
-0.107292
-0.202807
-0.241103
-0.238384
-0.214311
-0.18551
-0.161986
-0.147101
-0.13973
-0.136925
-0.135925
-0.135156
-0.13425
-0.133259
-0.132166
-0.13087
-0.129071
-0.126584
-0.123509
-0.120099
-0.116908
-0.114439
-0.113006
-0.112589
-0.112994
-0.113689
-0.114288
-0.114555
-0.114489
-0.114238
-0.114043
-0.113949
-0.113871
-0.113551
-0.112687
-0.111046
-0.108661
-0.105696
-0.102455
-0.0992863
-0.0963882
-0.0938926
-0.0917729
-0.089923
-0.0881915
-0.0865343
-0.0849605
-0.0836171
-0.0827132
-0.0823708
-0.0825433
-0.0831642
-0.0839743
-0.0846806
-0.0850292
-0.084907
-0.0842898
-0.0834028
-0.0824083
-0.0814519
-0.0806006
-0.0797952
-0.0789597
-0.0780164
-0.0770635
-0.0762026
-0.0756677
-0.0755874
-0.0760615
-0.077135
-0.0787489
-0.0808639
-0.0834371
-0.0863107
-0.0893304
-0.0922409
-0.0949828
-0.0976683
-0.100611
-0.104296
-0.109078
-0.114892
-0.121282
-0.127181
-0.131285
-0.132484
-0.130094
-0.124086
-0.114978
-0.103725
-0.0912842
-0.0784089
-0.0656795
-0.053458
-0.0419043
-0.0310533
-0.0207818
-0.010899
-0.00106656
0.00894838
0.0193253
0.0298251
0.0400936
0.0496324
0.0579483
0.0648167
0.0702708
0.0744475
0.0777154
0.0804073
0.0827079
0.0848484
0.0869441
0.0890508
0.0912576
0.0935375
0.0957945
0.0976547
0.0987124
0.0985583
0.0968293
0.0936015
0.0891533
0.0840669
0.0790062
0.0745453
0.0709918
0.0685176
0.0670584
0.0664447
0.0665042
0.0670549
0.0679604
0.069081
0.0701908
0.0710399
0.071399
0.0708889
0.0692853
0.0664664
0.0624513
0.0576199
0.0525401
0.0479013
0.0443696
0.0423586
0.0420385
0.0430957
0.0448942
0.0466243
0.0474324
0.0467827
0.0444429
0.0406707
0.0360488
0.0312468
0.0269697
0.0235872
0.0210962
0.0192636
0.0177013
0.0160913
0.0142763
0.012363
0.0105102
0.00892559
0.00773466
0.00690735
0.00636041
0.00608825
0.00612895
0.00659034
0.00757835
0.00911335
0.0110845
0.0132217
0.0151643
0.0165437
0.0171185
0.0167702
0.0155249
0.0136601
0.0113663
0.00895639
0.00662061
0.00444923
0.0025001
0.00077274
-0.000796387
-0.00224735
-0.00359994
-0.00483236
-0.00576313
-0.00612692
-0.00546313
-0.00334768
0.000440442
0.00589236
0.0126737
0.0202397
0.0279512
0.0354022
0.0424825
0.0492708
0.0560775
0.063106
0.0703186
0.0773759
0.0836896
0.0885526
0.0914338
0.0920476
0.0904845
0.0870546
0.0822684
0.076732
0.0710136
0.0657682
0.0616609
0.0595297
0.0598182
0.0625121
0.0668656
0.0713634
0.0740194
0.0729201
0.0669258
0.0559899
0.0413051
0.0249344
0.0090197
-0.00471222
-0.0154236
-0.0232455
-0.028855
-0.0331368
-0.0366677
-0.0396185
-0.0418949
-0.043294
-0.0436681
-0.0433127
-0.0426263
-0.0420443
-0.0418507
-0.0421229
-0.0427141
-0.0434093
-0.0441308
-0.0449398
-0.0461075
-0.0477658
-0.0497824
-0.0517636
-0.0532227
-0.053694
-0.0530474
-0.051939
-0.0517955
-0.054691
-0.0629356
-0.0784323
-0.102125
-0.132972
-0.167235
-0.198289
-0.217012
-0.21236
-0.172787
-0.0886284
0.0450232
0.224997
0.437591
0.657879
0.852444
0.985961
1.0302
0.972497
0.820756
0.602757
0.358989
0.131466
-0.0473082
-0.161481
-0.212963
-0.216986
-0.194486
-0.16456
-0.13975
-0.124955
-0.119431
-0.119682
-0.12207
-0.124128
-0.125004
-0.124771
-0.123897
-0.122746
-0.121751
-0.121138
-0.120923
-0.121
-0.121123
-0.120928
-0.120019
-0.11825
-0.11568
-0.112615
-0.109439
-0.106476
-0.103855
-0.101399
-0.0987929
-0.0957904
-0.0922879
-0.0885676
-0.0850561
-0.0823715
-0.0808289
-0.0804801
-0.0809661
-0.0817932
-0.0824225
-0.0826038
-0.0822508
-0.0816483
-0.0810581
-0.080675
-0.0805187
-0.0804166
-0.0801697
-0.0796297
-0.0788859
-0.0781123
-0.077528
-0.0772196
-0.0771522
-0.0771428
-0.0769452
-0.0763858
-0.0755198
-0.0743392
-0.072955
-0.0712136
-0.0690559
-0.0664144
-0.0635062
-0.0608163
-0.0589427
-0.0585168
-0.0598029
-0.0626073
-0.0663972
-0.0704531
-0.0740572
-0.076844
-0.0787861
-0.080191
-0.081485
-0.0831417
-0.0854675
-0.0886574
-0.0926669
-0.0972454
-0.101947
-0.106176
-0.109149
-0.110069
-0.108241
-0.103201
-0.0947709
-0.0832036
-0.0691848
-0.053598
-0.0375754
-0.0220981
-0.00800568
0.00429007
0.0147637
0.0238032
0.0319761
0.0398804
0.0478943
0.0561531
0.0644111
0.0723331
0.0794389
0.0853287
0.0898963
0.0931915
0.0954555
0.0970775
0.0983481
0.099414
0.10036
0.101216
0.101942
0.10261
0.103329
0.104189
0.105189
0.106184
0.106995
0.10745
0.10748
0.106993
0.106006
0.104538
0.102464
0.099665
0.0960498
0.0916639
0.0867521
0.0817272
0.077006
0.0730169
0.0699561
0.0677759
0.0662874
0.0650795
0.063917
0.0625364
0.0608671
0.0588647
0.0566009
0.0540601
0.0513797
0.0486784
0.0462547
0.044193
0.0425095
0.0411498
0.0398584
0.0383253
0.0364241
0.0340809
0.0314034
0.0284955
0.0254765
0.0223807
0.0192523
0.016161
0.0132943
0.0108518
0.00899384
0.00784627
0.00732832
0.00731484
0.00761008
0.00804244
0.00845545
0.008789
0.00887
0.00873216
0.00828704
0.00762644
0.00687333
0.00612875
0.005477
0.00494316
0.00439759
0.00371989
0.00282892
0.00171605
0.000377983
-0.00112287
-0.00281272
-0.00473162
-0.00683123
-0.00901048
-0.011087
-0.0128146
-0.014066
-0.0149017
-0.0154664
-0.0159351
-0.0164037
-0.0167379
-0.0165036
-0.0150974
-0.0118982
-0.00657942
0.000833612
0.00981528
0.0194967
0.0287508
0.0367061
0.0427551
0.046869
0.0494673
0.0512206
0.0528813
0.0550584
0.0580606
0.0618897
0.0662622
0.0707241
0.0747375
0.077818
0.0796163
0.079904
0.0786368
0.0759406
0.0721204
0.0677383
0.0635072
0.0603067
0.0591022
0.060437
0.0642468
0.0695246
0.0745266
0.0770713
0.0752336
0.0678073
0.0548452
0.0375574
0.0179683
-0.00158629
-0.0191281
-0.0333791
-0.0439502
-0.0510871
-0.0554534
-0.0578663
-0.0590774
-0.0596336
-0.0599418
-0.0601514
-0.0603297
-0.0604364
-0.0603789
-0.0600616
-0.0593188
-0.0579191
-0.0557525
-0.0527559
-0.0491161
-0.0453714
-0.0424797
-0.0419744
-0.0459435
-0.0564443
-0.0751128
-0.102465
-0.136994
-0.174827
-0.209818
-0.234487
-0.241345
-0.224453
-0.180529
-0.109144
-0.01222
0.107087
0.245548
0.400038
0.566772
0.739428
0.906808
1.05154
1.15149
1.18417
1.13366
0.997262
0.789142
0.538748
0.284107
0.0616046
-0.103328
-0.201695
-0.240773
-0.238773
-0.21695
-0.192763
-0.176152
-0.169587
-0.170625
-0.175246
-0.179974
-0.183054
-0.184158
-0.183763
-0.182502
-0.180828
-0.179099
-0.177517
-0.176262
-0.175388
-0.174795
-0.174306
-0.173756
-0.17292
-0.171657
-0.169825
-0.167273
-0.163912
-0.159728
-0.154839
-0.149641
-0.144549
-0.140086
-0.136602
-0.134214
-0.132846
-0.132231
-0.132014
-0.131959
-0.131893
-0.131774
-0.13161
-0.131413
-0.131168
-0.130809
-0.130244
-0.129464
-0.128547
-0.127548
-0.126563
-0.125543
-0.124437
-0.123085
-0.121415
-0.119444
-0.117383
-0.115432
-0.113879
-0.112899
-0.112649
-0.113145
-0.114191
-0.115628
-0.117076
-0.118135
-0.118531
-0.118111
-0.117012
-0.115591
-0.114348
-0.113718
-0.114042
-0.115363
-0.117451
-0.120013
-0.12271
-0.125275
-0.12745
-0.129016
-0.129769
-0.129498
-0.127984
-0.125077
-0.120743
-0.115102
-0.108166
-0.0999963
-0.0905235
-0.0795771
-0.0671713
-0.053527
-0.039055
-0.024395
-0.0101975
0.00305324
0.0151245
0.0259537
0.0357084
0.0444593
0.0520811
0.0584264
0.0633908
0.0668993
0.0692852
0.0709793
0.0725487
0.0745113
0.0771745
0.0805102
0.0841887
0.0877691
0.090738
0.0926705
0.0932967
0.0925486
0.0906864
0.0880692
0.0850834
0.082134
0.0794031
0.0769381
0.0747615
0.0728374
0.0711243
0.0695821
0.0681027
0.0665261
0.0646273
0.0623527
0.059716
0.0569361
0.05444
0.0526565
0.0518461
0.0519385
0.0526681
0.0534607
0.0535387
0.0523361
0.0494219
0.0447877
0.0387138
0.0318
0.024831
0.0184999
0.0133291
0.00956831
0.00707169
0.00558485
0.00466607
0.00388881
0.00308423
0.00219482
0.00136639
0.000775379
0.000493156
0.000641454
0.00104359
0.00149777
0.00174197
0.0015861
0.000814149
-0.000645797
-0.00261843
-0.00481415
-0.0068675
-0.00845818
-0.00945541
-0.00992759
-0.0100703
-0.0102503
-0.0106427
-0.0113426
-0.012196
-0.0129762
-0.0134564
-0.013494
-0.0130064
-0.0119823
-0.010478
-0.00864958
-0.00658955
-0.00464106
-0.0029561
-0.00169695
-0.000837216
-0.000214054
0.000434477
0.00150898
0.00329772
0.00595494
0.00956189
0.0139782
0.0190356
0.0245031
0.0301142
0.0355785
0.0406806
0.0453767
0.0498664
0.0545817
0.0600253
0.0666008
0.074221
0.0823147
0.0898099
0.0955657
0.0986284
0.0986578
0.0960311
0.0917826
0.087108
0.0830786
0.0803333
0.0787703
0.0778436
0.0768024
0.0749931
0.0722319
0.0689423
0.0659955
0.0642396
0.0641666
0.0653498
0.0666228
0.0662878
0.0627118
0.0548445
0.0425759
0.0268452
0.00924735
-0.00828162
-0.0240299
-0.0367654
-0.0458103
-0.0510561
-0.0529777
-0.052333
-0.0501389
-0.0474835
-0.0451999
-0.0438372
-0.0436193
-0.0445529
-0.0463492
-0.0487567
-0.0513791
-0.0537797
-0.0556903
-0.0569728
-0.0577707
-0.0586416
-0.0606538
-0.0652193
-0.0739583
-0.0883732
-0.109411
-0.137281
-0.1706
-0.205804
-0.236849
-0.255227
-0.250388
-0.211024
-0.127516
0.00494225
0.182796
0.391621
0.605694
0.791469
0.914425
0.948257
0.882902
0.728736
0.514828
0.281146
0.0674611
-0.0969291
-0.199233
-0.243274
-0.244341
-0.221928
-0.193033
-0.1682
-0.151434
-0.142255
-0.138314
-0.137386
-0.138021
-0.139594
-0.141619
-0.143528
-0.14464
-0.144529
-0.143053
-0.140409
-0.137154
-0.133855
-0.131089
-0.129233
-0.128412
-0.128476
-0.128991
-0.129366
-0.129033
-0.127693
-0.125459
-0.122671
-0.119817
-0.117323
-0.115249
-0.113493
-0.111766
-0.109738
-0.107274
-0.10436
-0.101081
-0.097517
-0.0937848
-0.0898715
-0.0858716
-0.0819387
-0.0782425
-0.0750796
-0.0726818
-0.0711984
-0.0707882
-0.0714438
-0.0730532
-0.0753477
-0.0779482
-0.0802992
-0.0819023
-0.0824741
-0.0820506
-0.0810582
-0.0801079
-0.0796259
-0.0797462
-0.0802332
-0.0804929
-0.0798975
-0.0781481
-0.075368
-0.0719497
-0.0685594
-0.0656222
-0.0633981
-0.0618214
-0.0608475
-0.0604571
-0.0609045
-0.0625019
-0.0655642
-0.0701387
-0.075916
-0.0822715
-0.0884647
-0.0936958
-0.0974713
-0.0996274
-0.100098
-0.099034
-0.0965296
-0.0926747
-0.0874859
-0.0809863
-0.0733651
-0.0648494
-0.0557946
-0.046586
-0.037548
-0.0287838
-0.0202533
-0.0118339
-0.00329108
0.00542608
0.0142471
0.0230313
0.0315883
0.0397402
0.0472699
0.0540159
0.0598378
0.0644912
0.0678849
0.0700654
0.0711871
0.0716393
0.0716948
0.0715805
0.0714154
0.0711427
0.0707454
0.0703344
0.070147
0.0704121
0.0713751
0.0730424
0.0752329
0.0775685
0.0795368
0.0806918
0.0808368
0.0799543
0.0783313
0.0762929
0.074235
0.0723767
0.0707679
0.0692009
0.0674492
0.065201
0.0622504
0.0585855
0.0544182
0.0501388
0.0461674
0.0429083
0.0406402
0.0393817
0.0389237
0.0389885
0.039279
0.0395721
0.0398101
0.0400127
0.0402227
0.0404443
0.0405356
0.0403611
0.039674
0.0382739
0.0360611
0.033069
0.0294208
0.0254335
0.021345
0.017483
0.0141354
0.0114132
0.00923982
0.00739061
0.00561648
0.00376152
0.00188125
0.000187527
-0.000985443
-0.0014928
-0.00132433
-0.000743365
-1.25069e-5
0.000671127
0.00123029
0.00170797
0.00218438
0.00243494
0.00213517
0.000988164
-0.00102456
-0.00353244
-0.00589228
-0.00742658
-0.00773769
-0.00698048
-0.00584869
-0.00520031
-0.00567011
-0.00732969
-0.00964854
-0.0115535
-0.0119563
-0.0100172
-0.00541688
0.00154209
0.0100868
0.0193151
0.0283451
0.0366408
0.0440579
0.0508079
0.057159
0.0633637
0.0694014
0.0748838
0.0791146
0.08144
0.081471
0.0794386
0.0760486
0.0724013
0.0695703
0.0682043
0.0682936
0.0691041
0.0695627
0.0685938
0.0657139
0.0612443
0.0562189
0.0520755
0.0500372
0.0505
0.0527625
0.0552009
0.0557453
0.0525227
0.0445232
0.0319023
0.0158269
-0.00181702
-0.0190067
-0.0340429
-0.0457763
-0.0537851
-0.0582061
-0.0596888
-0.0590491
-0.0573365
-0.0554833
-0.0542098
-0.0538469
-0.0543196
-0.0552237
-0.0559262
-0.0559598
-0.055063
-0.053444
-0.0515214
-0.049676
-0.0482172
-0.047255
-0.0467262
-0.046632
-0.0471298
-0.0488308
-0.052636
-0.0596703
-0.0711731
-0.0881495
-0.111186
-0.139597
-0.170863
-0.200096
-0.219685
-0.21954
-0.188119
-0.114655
0.0076218
0.177813
0.384152
0.602947
0.801054
0.942489
0.997453
0.951249
0.809716
0.598838
0.35788
0.1287
-0.0554323
-0.177019
-0.23605
-0.246038
-0.226696
-0.196883
-0.169597
-0.150841
-0.140959
-0.13739
-0.136938
-0.137327
-0.137543
-0.137429
-0.137158
-0.136861
-0.136693
-0.136665
-0.136742
-0.137027
-0.137662
-0.138828
-0.14048
-0.142432
-0.144218
-0.145218
-0.144871
-0.142887
-0.139452
-0.135036
-0.130465
-0.126546
-0.123848
-0.122519
-0.122243
-0.122348
-0.122074
-0.120778
-0.118192
-0.114577
-0.1106
-0.10712
-0.10474
-0.103638
-0.103533
-0.103806
-0.103864
-0.103331
-0.102288
-0.101019
-0.0998033
-0.098814
-0.0979515
-0.0970001
-0.0956952
-0.0940577
-0.0922636
-0.0906533
-0.0894847
-0.0888733
-0.0887964
-0.0890034
-0.089226
-0.0891805
-0.0887332
-0.0878308
-0.0865114
-0.0849394
-0.0833902
-0.0821539
-0.0814717
-0.0814346
-0.0820416
-0.0831799
-0.0847604
-0.0866729
-0.0889513
-0.0916449
-0.0948148
-0.0985253
-0.102852
-0.107799
-0.113305
-0.119125
-0.124715
-0.129311
-0.13184
-0.131362
-0.127151
-0.119099
-0.107685
-0.0939506
-0.07936
-0.0653226
-0.053024
-0.043059
-0.0354455
-0.0296846
-0.0248805
-0.0201314
-0.0146569
-0.00806666
-0.000342418
0.00829948
0.017435
0.0266816
0.0357757
0.0445925
0.0530147
0.0610113
0.0684086
0.0750073
0.0805624
0.0849511
0.0880916
0.0901484
0.0913819
0.0920887
0.0926351
0.0931923
0.0939565
0.0948368
0.0957533
0.0964661
0.0967679
0.0965792
0.0958859
0.0947912
0.0934861
0.0920633
0.0905174
0.0887278
0.0865143
0.0836083
0.0800113
0.0758448
0.0714509
0.0673946
0.0641897
0.0620514
0.0610359
0.0606533
0.0602705
0.0592183
0.057023
0.0536424
0.049436
0.045043
0.0411085
0.0381249
0.036302
0.0354907
0.0354239
0.0356619
0.0358701
0.0357091
0.0350739
0.0338973
0.0322282
0.030201
0.0278433
0.0252096
0.0223406
0.0191686
0.0156849
0.0120169
0.00834387
0.00500006
0.00232145
0.000550739
-0.000241196
-0.00014249
0.000531482
0.00148864
0.00239233
0.00304053
0.00334474
0.00334198
0.00314519
0.00291315
0.00276069
0.00274757
0.00278846
0.00273045
0.0022906
0.001351
-0.000118796
-0.00194258
-0.00387861
-0.0056393
-0.00708462
-0.00813416
-0.00898777
-0.00980931
-0.0107603
-0.0119032
-0.0131076
-0.0141236
-0.0146785
-0.0146072
-0.0138143
-0.0123276
-0.0103198
-0.00787001
-0.00505717
-0.00172145
0.0022493
0.00699653
0.0124341
0.0183794
0.0244659
0.030309
0.0356791
0.0405517
0.0450832
0.0496578
0.054583
0.0599871
0.0657816
0.0715611
0.0766988
0.0805755
0.0826716
0.0828045
0.0810465
0.0778664
0.0737877
0.06932
0.064993
0.061106
0.0580375
0.05607
0.0556306
0.0570178
0.0602099
0.0644376
0.0683725
0.0701953
0.0681383
0.0610626
0.0488718
0.0325614
0.0140349
-0.00448157
-0.0210375
-0.0342709
-0.0437513
-0.0497009
-0.0528387
-0.054145
-0.0544701
-0.0545546
-0.0548819
-0.0556023
-0.056696
-0.0578884
-0.0589421
-0.0595286
-0.0594788
-0.0587271
-0.0573686
-0.0555622
-0.053564
-0.0517475
-0.0505107
-0.0506033
-0.0531002
-0.0596011
-0.0718089
-0.091113
-0.117888
-0.150896
-0.186564
-0.219478
-0.243193
-0.251552
-0.240036
-0.206287
-0.149289
-0.0679523
0.0397991
0.176366
0.342073
0.530942
0.727431
0.905467
1.03283
1.07946
1.02761
0.87951
0.658711
0.404428
0.160419
-0.0371148
-0.168448
-0.232926
-0.24499
-0.226327
-0.197733
-0.173392
-0.159242
-0.154978
-0.157064
-0.161493
-0.165483
-0.167732
-0.168063
-0.166744
-0.164241
-0.160981
-0.157459
-0.154076
-0.151082
-0.148571
-0.146453
-0.144525
-0.142649
-0.140759
-0.138905
-0.137189
-0.13565
-0.134249
-0.132927
-0.131486
-0.129681
-0.127316
-0.124355
-0.120777
-0.116858
-0.113027
-0.109672
-0.10719
-0.105758
-0.105271
-0.105431
-0.10571
-0.105771
-0.105335
-0.104437
-0.103307
-0.102146
-0.101156
-0.100375
-0.0997864
-0.0992346
-0.0986814
-0.0981596
-0.097688
-0.0972701
-0.0969639
-0.096767
-0.0967387
-0.0968786
-0.0972144
-0.0975855
-0.0977309
-0.097313
-0.0960678
-0.093938
-0.0911647
-0.0880992
-0.0853294
-0.0832461
-0.0820528
-0.081774
-0.0821745
-0.0830563
-0.0841861
-0.0854761
-0.0868088
-0.0882823
-0.0899222
-0.0918164
-0.0940907
-0.0967983
-0.0997971
-0.102822
-0.105199
-0.106049
-0.104495
-0.099843
-0.091867
-0.0809351
-0.0680456
-0.0544395
-0.0413894
-0.0298951
-0.0203915
-0.0128214
-0.00674367
-0.00154754
0.00329742
0.00816433
0.0131599
0.0183875
0.023936
0.0298921
0.0363368
0.0432911
0.0506067
0.057992
0.0650618
0.071596
0.0774424
0.0824759
0.0867271
0.0901321
0.0925661
0.0938874
0.094161
0.0935231
0.092378
0.0912438
0.0906011
0.0907661
0.0917385
0.0932931
0.0948925
0.0959398
0.0959161
0.0945685
0.0918503
0.0880179
0.0835942
0.0791505
0.0751416
0.0718695
0.0693456
0.0673597
0.0655647
0.06371
0.0616171
0.0592951
0.0569731
0.054779
0.0527964
0.0509439
0.0490903
0.047073
0.0449208
0.0426868
0.0405513
0.038572
0.0368386
0.0352753
0.0337445
0.0320967
0.030109
0.0277414
0.0249459
0.0217433
0.0182903
0.0147583
0.0114363
0.00851042
0.00604936
0.00395992
0.00203083
2.81157e-5
-0.00233345
-0.00499666
-0.00790755
-0.0107954
-0.0134146
-0.0155785
-0.0172841
-0.0186639
-0.0198171
-0.0208414
-0.0216961
-0.022329
-0.0226309
-0.0226028
-0.0222377
-0.0215873
-0.0207137
-0.0197283
-0.0187895
-0.0180649
-0.0177603
-0.0180654
-0.0189937
-0.0204829
-0.0223613
-0.024438
-0.0264352
-0.0282063
-0.0295921
-0.0304488
-0.030713
-0.0304263
-0.0297218
-0.0287797
-0.0278247
-0.0269026
-0.0259443
-0.0246561
-0.0226282
-0.0195111
-0.0150232
-0.0091965
-0.00227396
0.00533368
0.0130574
0.0203643
0.0267277
0.0318876
0.0356451
0.0382605
0.0401479
0.0419751
0.044399
0.0478656
0.0524592
0.0577413
0.0629657
0.0673187
0.0701106
0.0710559
0.0703274
0.0684309
0.0660496
0.0637963
0.0620999
0.0612654
0.0614574
0.0627884
0.065057
0.0676713
0.0695591
0.0693257
0.0656355
0.0576004
0.0453701
0.029835
0.0127498
-0.00398618
-0.0187903
-0.030683
-0.0394017
-0.0452007
-0.0485464
-0.0500054
-0.0502157
-0.0497356
-0.0491097
-0.0487118
-0.0488072
-0.0493906
-0.0503483
-0.0513337
-0.0521261
-0.0525614
-0.0526099
-0.0524134
-0.0521449
-0.0519881
-0.0519934
-0.0521977
-0.0525488
-0.05308
-0.0542419
-0.0570601
-0.06309
-0.0742016
-0.0919527
-0.117066
-0.148763
-0.183901
-0.216604
-0.238631
-0.239824
-0.208977
-0.135727
-0.0135372
0.157041
0.364986
0.587581
0.792129
0.941825
1.00507
0.96497
0.825587
0.612492
0.366271
0.131145
-0.0570785
-0.179465
-0.236011
-0.241586
-0.21796
-0.18575
-0.158786
-0.142574
-0.136339
-0.136353
-0.138714
-0.140795
-0.141645
-0.141466
-0.1407
-0.139773
-0.138909
-0.138284
-0.138089
-0.13832
-0.138929
-0.139667
-0.140099
-0.139892
-0.138813
-0.136887
-0.134251
-0.13122
-0.128006
-0.124801
-0.121703
-0.11875
-0.116046
-0.113791
-0.112114
-0.111226
-0.111092
-0.111412
-0.111783
-0.111541
-0.110242
-0.107607
-0.103728
-0.0991057
-0.0944113
-0.0904048
-0.0876181
-0.0863242
-0.0864068
-0.0874063
-0.0888182
-0.0901553
-0.0911615
-0.0917485
-0.0920677
-0.0922585
-0.092393
-0.0924651
-0.092318
-0.0918508
-0.091044
-0.0899178
-0.0885793
-0.0871932
-0.0857941
-0.0844788
-0.0832314
-0.0820717
-0.0809801
-0.0798481
-0.0785618
-0.0768818
-0.0746702
-0.0719198
-0.068831
-0.0658644
-0.0635363
-0.0623121
-0.0625378
-0.0642133
-0.0671606
-0.0709897
-0.0752409
-0.0793759
-0.0828672
-0.0849979
-0.0850194
-0.0823406
-0.076624
-0.0680855
-0.057455
-0.0459635
-0.0349609
-0.0255918
-0.0185132
-0.0137161
-0.0105489
-0.00810042
-0.0054157
-0.00173187
0.00329776
0.00972952
0.0174337
0.0261837
0.0358015
0.0460217
0.0564918
0.0667297
0.0761756
0.0842264
0.0904432
0.0947081
0.0970004
0.0976291
0.0969711
0.0954927
0.0935912
0.0916715
0.0900257
0.0887074
0.0876849
0.0867761
0.085798
0.0846634
0.0834837
0.0824181
0.0816628
0.0813345
0.0813938
0.0816125
0.0817691
0.0816425
0.0812117
0.0805492
0.0797873
0.0790378
0.0782887
0.0772998
0.0758464
0.0736878
0.070662
0.0667965
0.0622457
0.0572025
0.0519376
0.0467789
0.0420444
0.038048
0.0349717
0.0328665
0.0315306
0.0305599
0.0295082
0.0279008
0.0254786
0.0222904
0.0185469
0.0147379
0.0114087
0.00899123
0.00777004
0.00775543
0.00865572
0.0100178
0.0112523
0.0118254
0.0113474
0.00958283
0.00656299
0.00256589
-0.00202054
-0.00664313
-0.0108564
-0.0142997
-0.0167571
-0.0181566
-0.0185955
-0.018197
-0.0172357
-0.0160088
-0.0148714
-0.0141531
-0.0140758
-0.0147174
-0.0160786
-0.0179097
-0.0199269
-0.0218564
-0.0233477
-0.0241693
-0.0241749
-0.0233347
-0.0217761
-0.0196608
-0.0173113
-0.0150165
-0.0130027
-0.0114228
-0.0104247
-0.0100807
-0.0104089
-0.0114227
-0.01295
-0.0148698
-0.0169647
-0.019007
-0.0207298
-0.0218729
-0.0221163
-0.0211342
-0.0185551
-0.0141529
-0.00794148
-0.000180268
0.00860083
0.0177519
0.0266763
0.0350383
0.0427937
0.050069
0.057105
0.0640542
0.070798
0.0769673
0.0821201
0.0858101
0.0878195
0.088142
0.0869891
0.084656
0.0813776
0.0773092
0.0724383
0.0669489
0.0613555
0.0566368
0.0539824
0.054346
0.0579488
0.0638613
0.0701111
0.0742567
0.0741619
0.0686873
0.0580657
0.0437176
0.0277073
0.0120202
-0.00196389
-0.0136732
-0.0231857
-0.0309309
-0.0374305
-0.0429902
-0.047706
-0.0514841
-0.0541696
-0.055791
-0.0565669
-0.0569904
-0.0575964
-0.0588871
-0.0610403
-0.0638404
-0.0668088
-0.0693722
-0.0710593
-0.0717824
-0.0716748
-0.0711425
-0.0706627
-0.0706038
-0.0713333
-0.0733827
-0.0775391
-0.0849043
-0.0966778
-0.113826
-0.136765
-0.164708
-0.195164
-0.223621
-0.243548
-0.246483
-0.222547
-0.161824
-0.0569959
0.0936064
0.282613
0.491675
0.692338
0.850843
0.935823
0.927334
0.823458
0.642203
0.417405
0.18929
-0.00625393
-0.146356
-0.225
-0.250791
-0.241108
-0.214994
-0.187102
-0.165443
-0.151881
-0.14461
-0.140651
-0.137673
-0.134658
-0.131752
-0.12953
-0.128398
-0.128391
-0.129134
-0.129963
-0.130279
-0.129616
-0.127972
-0.125682
-0.123316
-0.121512
-0.120693
-0.120955
-0.122129
-0.123651
-0.125
-0.125675
-0.125252
-0.123685
-0.12102
-0.117612
-0.113801
-0.110008
-0.106546
-0.103622
-0.101316
-0.0994891
-0.0980067
-0.0966989
-0.0954216
-0.0940159
-0.0922674
-0.0900966
-0.0874341
-0.0844106
-0.0813668
-0.0786974
-0.0767276
-0.0755439
-0.07501
-0.0748357
-0.0746101
-0.0740845
-0.0733267
-0.0725401
-0.0719872
-0.0717344
-0.0717881
-0.07195
-0.0720387
-0.0718178
-0.0711277
-0.0698192
-0.0677957
-0.0650117
-0.0615154
-0.0575737
-0.0536623
-0.0503232
-0.0481453
-0.0475554
-0.0485188
-0.050833
-0.0539765
-0.0574601
-0.0608498
-0.0638411
-0.0664674
-0.0688729
-0.0712281
-0.073517
-0.0755202
-0.076829
-0.0767939
-0.0749199
-0.0709085
-0.0649677
-0.0576337
-0.0498762
-0.0426701
-0.0367935
-0.0327607
-0.0306153
-0.0299839
-0.0302846
-0.0307595
-0.0305621
-0.0290934
-0.0259079
-0.0208934
-0.0143011
-0.00654732
0.00175794
0.0101888
0.0184075
0.0263756
0.0341585
0.0418252
0.0493995
0.056649
0.0632249
0.0686989
0.0727906
0.075444
0.0769473
0.0778474
0.0787283
0.0801486
0.0823363
0.0852445
0.0885533
0.0918709
0.0947275
0.0968628
0.0981663
0.098572
0.0981591
0.0969101
0.0949194
0.0923207
0.0892604
0.0860555
0.0828995
0.080054
0.0776359
0.0757361
0.0743346
0.0733858
0.0727952
0.0724118
0.0720415
0.0714298
0.0703853
0.0688281
0.0669232
0.0648718
0.0630009
0.0615097
0.0604589
0.0597122
0.0589575
0.0578304
0.0560101
0.0534064
0.050013
0.0460341
0.0418417
0.0377296
0.0339344
0.030629
0.0278963
0.0257781
0.0243507
0.0237376
0.0238971
0.0245346
0.0251364
0.0251091
0.0239969
0.0217102
0.0186408
0.0155546
0.01327
0.0124651
0.0133345
0.0154735
0.0180494
0.0200476
0.0205908
0.0191971
0.0159564
0.0115176
0.00681326
0.00269244
-0.000149973
-0.00158004
-0.00192424
-0.00174473
-0.00163255
-0.00205471
-0.00305765
-0.00444669
-0.00585834
-0.00695375
-0.00753664
-0.00756287
-0.00710653
-0.00623633
-0.00508126
-0.00382138
-0.0026847
-0.00195699
-0.0018439
-0.00249799
-0.00390473
-0.00580849
-0.00758024
-0.00858558
-0.00820496
-0.00590364
-0.00152409
0.00471107
0.0123138
0.0204317
0.0282256
0.0350434
0.0405419
0.0447354
0.047874
0.0502257
0.0521201
0.0539067
0.0559593
0.0587003
0.0625697
0.0677643
0.0741115
0.0810281
0.0875012
0.0924234
0.0949972
0.0949477
0.0924085
0.0879229
0.0820957
0.0755273
0.0686294
0.0619317
0.056084
0.0518363
0.0497897
0.0500111
0.0517794
0.0535277
0.0533836
0.0496249
0.0413818
0.028942
0.0137309
-0.00217707
-0.0167181
-0.0283623
-0.0364377
-0.0411065
-0.0431291
-0.0435498
-0.0434344
-0.0436083
-0.04448
-0.0461373
-0.0483151
-0.0506157
-0.0526125
-0.053941
-0.0546254
-0.0547773
-0.0547645
-0.0549854
-0.0557808
-0.0570931
-0.0587799
-0.0603549
-0.0614214
-0.0617278
-0.0613114
-0.0607685
-0.0611839
-0.0640766
-0.0710806
-0.083785
-0.103254
-0.12925
-0.159634
-0.189661
-0.212209
-0.217818
-0.195756
-0.135655
-0.0298729
0.123279
0.316864
0.533327
0.745098
0.918566
1.02122
1.03004
0.938979
0.761754
0.52937
0.282186
0.0592028
-0.11133
-0.217412
-0.263076
-0.263786
-0.239198
-0.206847
-0.178341
-0.158499
-0.147368
-0.142347
-0.140524
-0.13981
-0.139276
-0.138727
-0.138184
-0.13757
-0.136875
-0.135974
-0.134879
-0.133654
-0.132336
-0.130967
-0.129493
-0.127704
-0.125557
-0.12317
-0.120792
-0.118749
-0.117328
-0.116489
-0.116058
-0.115595
-0.114574
-0.112708
-0.109876
-0.106178
-0.101904
-0.0974511
-0.0931776
-0.0894081
-0.0863987
-0.0843531
-0.0832772
-0.0831614
-0.0837647
-0.0848565
-0.086059
-0.0871014
-0.0876341
-0.0876499
-0.087231
-0.0865632
-0.0858877
-0.0854222
-0.0852662
-0.0853828
-0.0856279
-0.0858314
-0.0858016
-0.085398
-0.0845252
-0.0831882
-0.0814248
-0.0792938
-0.0769218
-0.0744309
-0.0720742
-0.0701382
-0.0689736
-0.0689796
-0.0703897
-0.0731696
-0.0771346
-0.0817928
-0.0866935
-0.0914528
-0.0958682
-0.0999186
-0.103853
-0.10784
-0.111964
-0.116211
-0.12022
-0.123445
-0.125181
-0.124657
-0.121234
-0.114563
-0.104755
-0.0923954
-0.0783753
-0.0638057
-0.0496491
-0.0366092
-0.0250601
-0.0148562
-0.00570745
0.00281895
0.0110693
0.019306
0.0276332
0.0361361
0.0448764
0.0538818
0.0631481
0.0725256
0.0816729
0.0901663
0.0975251
0.103313
0.107374
0.109806
0.110946
0.111266
0.111195
0.111152
0.111304
0.111703
0.112249
0.11275
0.112973
0.11261
0.111409
0.109151
0.105827
0.101578
0.0966833
0.0915377
0.0865135
0.0818946
0.0778727
0.0745728
0.0721175
0.0705096
0.0696699
0.069489
0.0696271
0.0697472
0.0694643
0.0685002
0.0668479
0.0646295
0.0621816
0.0599677
0.0583936
0.0576741
0.0578177
0.0585798
0.0595435
0.0601497
0.0599259
0.0585571
0.0559857
0.0524481
0.0483675
0.0441809
0.0403006
0.036872
0.0338613
0.0310245
0.0281747
0.0252497
0.0223165
0.0196016
0.0172813
0.0154492
0.0140813
0.0131182
0.0124179
0.0118881
0.011435
0.011031
0.0106514
0.0102935
0.0099456
0.00976787
0.00994356
0.0106374
0.0120245
0.0140568
0.0164916
0.0190103
0.0212125
0.022728
0.0232712
0.0227768
0.0213139
0.0189918
0.0160726
0.012781
0.00942111
0.00634986
0.00385228
0.00198636
0.000760424
-9.59413e-5
-0.000739852
-0.00137511
-0.00193662
-0.00224814
-0.00201964
-0.000990607
0.000995349
0.00407562
0.00836866
0.014006
0.0211232
0.0296576
0.0392858
0.0493936
0.0591343
0.0677069
0.074609
0.0798361
0.083856
0.0873649
0.0909867
0.0950005
0.0990351
0.102381
0.104177
0.103823
0.101129
0.0966203
0.0910865
0.0854059
0.0802115
0.0758111
0.0723758
0.0701102
0.0694414
0.0709078
0.0747935
0.0807703
0.087547
0.0931935
0.0955209
0.0929788
0.0849842
0.0723141
0.0566932
0.040202
0.0246439
0.01105
-0.000167354
-0.00924181
-0.0166003
-0.0226855
-0.0277467
-0.0320709
-0.0357824
-0.0390438
-0.0418833
-0.0443034
-0.0462442
-0.0476129
-0.0482967
-0.0482571
-0.0475511
-0.0462562
-0.0445263
-0.0426482
-0.0409409
-0.0399753
-0.0405343
-0.0438785
-0.0515641
-0.0650862
-0.0855283
-0.11296
-0.145711
-0.179508
-0.207503
-0.220516
-0.208204
-0.160429
-0.0692259
0.0692196
0.252583
0.470826
0.705606
0.931203
1.11714
1.23304
1.25545
1.17415
0.99688
0.749244
0.469764
0.200764
-0.0218707
-0.176607
-0.259537
-0.282407
-0.266094
-0.232838
-0.199974
-0.177088
-0.166354
-0.165274
-0.169659
-0.175783
-0.181432
-0.185668
-0.188399
-0.189677
-0.189496
-0.187985
-0.185462
-0.182281
-0.178926
-0.175711
-0.172789
-0.169963
-0.167028
-0.16375
-0.160088
-0.156214
-0.152529
-0.14936
-0.146998
-0.145539
-0.144817
-0.144493
-0.144276
-0.143911
-0.14319
-0.142
-0.140214
-0.1378
-0.134708
-0.131063
-0.127139
-0.123203
-0.119504
-0.116137
-0.11317
-0.110597
-0.108449
-0.106886
-0.106024
-0.105864
-0.10621
-0.106663
-0.106711
-0.106029
-0.10459
-0.102768
-0.101028
-0.0998905
-0.0996796
-0.100431
-0.101939
-0.103876
-0.105892
-0.107599
-0.108714
-0.108963
-0.108123
-0.106182
-0.103395
-0.100357
-0.0978069
-0.0965227
-0.0970031
-0.0992958
-0.103006
-0.10745
-0.111924
-0.115813
-0.118753
-0.120617
-0.121399
-0.120917
-0.119015
-0.115394
-0.109673
-0.101489
-0.0907206
-0.0773792
-0.0619128
-0.0450662
-0.0278721
-0.0114409
0.00331164
0.0158659
0.0261805
0.0346726
0.0419234
0.0485545
0.0550665
0.0616278
0.0682151
0.0745324
0.0803495
0.0854475
0.0897243
0.0932359
0.0961567
0.0986946
0.101048
0.103325
0.105498
0.107381
0.108878
0.109738
0.109824
0.109005
0.107113
0.10402
0.0997465
0.0944906
0.0886966
0.082907
0.0777552
0.0736903
0.0708751
0.0692065
0.0684514
0.0683595
0.0686892
0.0692233
0.0698168
0.0701786
0.0700713
0.0692218
0.0674355
0.0647039
0.0611395
0.056976
0.0524961
0.0480201
0.0438623
0.0402399
0.0373048
0.0350958
0.033489
0.0322565
0.031095
0.0297763
0.028098
0.0260502
0.0236531
0.0211617
0.0187711
0.0167203
0.0151586
0.0142522
0.0140712
0.0146238
0.0157887
0.0173168
0.0187856
0.0197613
0.0198323
0.018802
0.0165859
0.0134044
0.00959691
0.00555039
0.00163605
-0.00183596
-0.00467934
-0.00677474
-0.00812582
-0.00887343
-0.00914786
-0.00920213
-0.00912314
-0.00900134
-0.00889767
-0.00882452
-0.00874455
-0.0087074
-0.00861846
-0.00828612
-0.00754127
-0.00623339
-0.00428759
-0.0018357
0.000913906
0.0037245
0.00652775
0.00941761
0.012771
0.016983
0.0223234
0.0286616
0.0356103
0.042475
0.048579
0.0535116
0.0572112
0.0600503
0.0626473
0.0656544
0.0695474
0.0743854
0.0797655
0.0850362
0.0893035
0.0917941
0.092084
0.0902055
0.08671
0.0825119
0.0787291
0.0762484
0.075791
0.0776308
0.0814517
0.0863423
0.0908401
0.0932553
0.0920073
0.0860874
0.0753613
0.060635
0.0434672
0.0257665
0.00929483
-0.00474733
-0.015764
-0.0237607
-0.0291794
-0.0326226
-0.0346188
-0.0356022
-0.0358384
-0.0354945
-0.0346738
-0.0335841
-0.0325889
-0.0320495
-0.0324061
-0.0338757
-0.0364269
-0.039782
-0.0433369
-0.0464038
-0.0485249
-0.0495293
-0.0496401
-0.049534
-0.0504203
-0.0539621
-0.0619396
-0.075967
-0.0971301
-0.125434
-0.158802
-0.192662
-0.219814
-0.230556
-0.213408
-0.156953
-0.0527214
0.101333
0.297167
0.514714
0.723089
0.885775
0.969491
0.953915
0.838667
0.644982
0.410432
0.178378
-0.0140575
-0.145017
-0.211176
-0.224549
-0.205461
-0.174454
-0.146291
-0.127938
-0.119877
-0.119036
-0.12162
-0.124586
-0.126503
-0.127013
-0.12633
-0.124884
-0.123144
-0.121504
-0.12027
-0.119513
-0.119189
-0.119097
-0.119049
-0.11893
-0.118754
-0.118593
-0.118404
-0.118119
-0.117574
-0.116622
-0.115158
-0.113114
-0.110666
-0.107929
-0.104984
-0.101932
-0.0987622
-0.0954185
-0.0918959
-0.0881961
-0.0844271
-0.0808255
-0.0775997
-0.0750242
-0.0732705
-0.07242
-0.0724161
-0.0731575
-0.0743521
-0.075758
-0.0771232
-0.078242
-0.0789682
-0.0792665
-0.0790553
-0.0783111
-0.0769895
-0.0752003
-0.0730461
-0.0707374
-0.0685483
-0.0665458
-0.0647244
-0.0629373
-0.0609308
-0.0586386
-0.0561223
-0.0537241
-0.0519311
-0.0512194
-0.0519428
-0.0541448
-0.0575627
-0.061591
-0.0656767
-0.0692768
-0.072114
-0.0742582
-0.0760143
-0.0777227
-0.0797244
-0.082048
-0.0845657
-0.0868486
-0.0883786
-0.0886511
-0.0871859
-0.0836425
-0.0776088
-0.0688731
-0.0574343
-0.0436252
-0.0282229
-0.0122878
0.00284854
0.0160889
0.0267542
0.0347161
0.0403777
0.0444201
0.0476293
0.0506022
0.0536693
0.0569723
0.0604198
0.0638841
0.0671907
0.0701558
0.0727805
0.0751204
0.0772316
0.0791767
0.0808356
0.0820143
0.0824549
0.0820381
0.0809606
0.0797246
0.078954
0.0791234
0.0803961
0.0824723
0.0846796
0.086162
0.0862923
0.0848191
0.0818621
0.0779015
0.0735313
0.0691768
0.0651865
0.0615889
0.0583006
0.0551399
0.0518941
0.0484434
0.0447043
0.0407388
0.036788
0.033136
0.0301314
0.0280391
0.0268862
0.0264764
0.0263975
0.0262139
0.0256408
0.0244885
0.022818
0.0208004
0.0185748
0.0162284
0.0138278
0.0113016
0.00852298
0.0055033
0.00219983
-0.00133025
-0.00494027
-0.00843297
-0.0115476
-0.0141206
-0.0159478
-0.0170163
-0.0173133
-0.0168227
-0.0155845
-0.0136515
-0.0111443
-0.00838932
-0.00587061
-0.00424922
-0.00422136
-0.00612173
-0.0099363
-0.0151253
-0.0207513
-0.0257371
-0.0291726
-0.0305757
-0.029895
-0.0275632
-0.0242396
-0.0206594
-0.0174577
-0.0151794
-0.0141972
-0.0146924
-0.0166931
-0.0198665
-0.0236222
-0.0270894
-0.0294032
-0.0299233
-0.0285444
-0.0257442
-0.0224708
-0.0197182
-0.0180922
-0.0177047
-0.0179737
-0.0179991
-0.016866
-0.0140052
-0.009369
-0.00335761
0.00343064
0.0103975
0.01724
0.0239604
0.0307646
0.0380445
0.0460231
0.0547211
0.063763
0.0725147
0.0802428
0.0862018
0.0899829
0.0914553
0.0907816
0.0883373
0.0845861
0.0799221
0.0748523
0.0700174
0.0660099
0.0634444
0.0624663
0.0625806
0.0626559
0.0611737
0.0565576
0.047831
0.0349435
0.0188811
0.00132488
-0.0157742
-0.0306522
-0.0423348
-0.0504455
-0.0552928
-0.0575187
-0.0578504
-0.0569411
-0.0553233
-0.0533178
-0.0512585
-0.0495475
-0.0486166
-0.0488486
-0.0504704
-0.053251
-0.0566763
-0.0598864
-0.0619349
-0.0622421
-0.0607042
-0.0578953
-0.0547827
-0.0526878
-0.0528533
-0.056167
-0.063125
-0.0739319
-0.0886347
-0.107341
-0.130098
-0.156732
-0.186175
-0.215797
-0.24102
-0.255268
-0.249861
-0.214881
-0.140882
-0.0217862
0.141808
0.339364
0.549044
0.739883
0.877545
0.933312
0.892655
0.760847
0.562567
0.335451
0.119615
-0.0530457
-0.165926
-0.219253
-0.22615
-0.205763
-0.176274
-0.150139
-0.132897
-0.124656
-0.122604
-0.123379
-0.124538
-0.124934
-0.124396
-0.123051
-0.121179
-0.119105
-0.116959
-0.114963
-0.113296
-0.112096
-0.111385
-0.111134
-0.111257
-0.111551
-0.111921
-0.112337
-0.112754
-0.113203
-0.113595
-0.113797
-0.113589
-0.112734
-0.111045
-0.108565
-0.105475
-0.101948
-0.0981815
-0.0942525
-0.0900639
-0.0856427
-0.0811115
-0.0767362
-0.0730297
-0.0704193
-0.0689433
-0.0684121
-0.0683756
-0.0683129
-0.0679434
-0.0674375
-0.0671975
-0.0676259
-0.0689761
-0.0709928
-0.0730394
-0.0743852
-0.0744196
-0.0729787
-0.0704148
-0.0673399
-0.0645329
-0.0626517
-0.0619499
-0.0622863
-0.0632364
-0.0641236
-0.0643655
-0.0635971
-0.061895
-0.0596326
-0.0575018
-0.0561135
-0.0558902
-0.0569877
-0.059391
-0.0630109
-0.0677864
-0.0736735
-0.0804888
-0.0878944
-0.0952904
-0.101954
-0.107147
-0.110395
-0.111428
-0.11029
-0.107045
-0.101746
-0.0945577
-0.0857298
-0.0756
-0.0647986
-0.0539119
-0.0434994
-0.0337926
-0.0246981
-0.0157405
-0.00636272
0.00377105
0.014765
0.0263446
0.037978
0.0490515
0.0590159
0.067435
0.0740672
0.0787641
0.0815885
0.0826668
0.0823984
0.0812683
0.0800851
0.079576
0.0803511
0.0827914
0.0867589
0.0916317
0.0965263
0.100373
0.10234
0.102037
0.0996356
0.0956801
0.0908733
0.0858738
0.0809916
0.076276
0.0716498
0.0671612
0.0630243
0.0596962
0.0576053
0.0569883
0.0577339
0.0592963
0.0608317
0.0615775
0.0609086
0.0587685
0.0555611
0.0519332
0.048567
0.0458828
0.0438942
0.0422885
0.0404897
0.0380676
0.0348157
0.0309612
0.0270851
0.0238425
0.0216571
0.020575
0.0202926
0.0202079
0.0197888
0.0187154
0.0170896
0.0152515
0.0136383
0.0126167
0.012236
0.012295
0.0125435
0.012719
0.0126356
0.0122267
0.0114986
0.0104749
0.00918883
0.00782277
0.00659749
0.00583123
0.00586872
0.00688686
0.0087336
0.0109683
0.0129149
0.0139309
0.0136157
0.0120189
0.00959156
0.00707053
0.0051317
0.00419447
0.00428657
0.0049066
0.00544283
0.00523167
0.00376818
0.000963924
-0.00299185
-0.00766188
-0.0125361
-0.0169995
-0.0204489
-0.0223245
-0.0219267
-0.0186947
-0.0124048
-0.0033459
0.00759838
0.0190359
0.0294988
0.0378399
0.0436364
0.0473087
0.0498746
0.0524925
0.0560265
0.060734
0.0661585
0.0715715
0.076098
0.0792252
0.0808591
0.0811347
0.0803734
0.0788151
0.0766275
0.0739474
0.0710591
0.0685657
0.0671455
0.0672758
0.0688212
0.0709229
0.0720241
0.0702806
0.0642217
0.0531976
0.0376558
0.0190878
-0.000396178
-0.018651
-0.0339399
-0.0453021
-0.0525871
-0.0563545
-0.057505
-0.0571467
-0.0562632
-0.0555679
-0.0555506
-0.0563294
-0.0577378
-0.0594017
-0.0607422
-0.0613347
-0.0609187
-0.0595484
-0.0574509
-0.0550136
-0.0526363
-0.0506647
-0.0494254
-0.0493267
-0.050837
-0.0547017
-0.061773
-0.0728337
-0.0885258
-0.109154
-0.134288
-0.162467
-0.190515
-0.213335
-0.224073
-0.214503
-0.175609
-0.0990846
0.0206014
0.183324
0.38071
0.594384
0.796594
0.954262
1.03642
1.02282
0.911053
0.718893
0.480559
0.23779
0.0284013
-0.122752
-0.208423
-0.237178
-0.227478
-0.199805
-0.17048
-0.148477
-0.136001
-0.131054
-0.130106
-0.130193
-0.129797
-0.128732
-0.127554
-0.126784
-0.126802
-0.127709
-0.129449
-0.131784
-0.134401
-0.136872
-0.138806
-0.139765
-0.139426
-0.13765
-0.134509
-0.130472
-0.125959
-0.121635
-0.117986
-0.115282
-0.113618
-0.112845
-0.112686
-0.112736
-0.11263
-0.111987
-0.11051
-0.108104
-0.104879
-0.101139
-0.0973348
-0.094
-0.0916241
-0.0904528
-0.0904766
-0.091458
-0.0929652
-0.0945681
-0.0958317
-0.096583
-0.0967433
-0.0963176
-0.0954473
-0.0942274
-0.092756
-0.0911471
-0.0894645
-0.0876865
-0.0858318
-0.0838698
-0.0816993
-0.0792208
-0.0763953
-0.0732925
-0.0700151
-0.066891
-0.064291
-0.062644
-0.062214
-0.0630946
-0.0650803
-0.0677807
-0.0707833
-0.0737208
-0.0765045
-0.0792011
-0.0820551
-0.0852801
-0.0890045
-0.0931669
-0.0974745
-0.101499
-0.104749
-0.106653
-0.106685
-0.1043
-0.0992674
-0.0915606
-0.0815885
-0.0701696
-0.0585344
-0.0479377
-0.0395158
-0.0338772
-0.031002
-0.0301914
-0.0302925
-0.0301522
-0.0286953
-0.0252746
-0.0196834
-0.0121288
-0.00297896
0.00723887
0.0180411
0.0291096
0.0401054
0.050775
0.0609356
0.0703371
0.0788445
0.0861713
0.092249
0.0970612
0.100781
0.103756
0.106483
0.109277
0.11231
0.115486
0.118496
0.120925
0.122423
0.122922
0.122427
0.121078
0.119036
0.116415
0.113226
0.109568
0.10561
0.101541
0.0975498
0.0938175
0.0904404
0.0874706
0.0848237
0.0824661
0.080359
0.0783532
0.0762765
0.0740541
0.0715703
0.0689022
0.0662194
0.0637977
0.0619105
0.0607334
0.060329
0.0605311
0.0611078
0.0616901
0.0620071
0.0618394
0.0609797
0.0592353
0.0565004
0.0527246
0.0481622
0.0431496
0.0382254
0.0338636
0.0302752
0.0274487
0.0250389
0.0227635
0.0204725
0.0182084
0.0162593
0.0148438
0.0141539
0.0140759
0.0143484
0.0147722
0.0151721
0.0154918
0.0157606
0.0160605
0.0162773
0.0162974
0.0160339
0.015382
0.0143238
0.0129141
0.0111876
0.00922113
0.0070906
0.00487707
0.00279374
0.000979658
-0.000396421
-0.00142939
-0.00230697
-0.00336933
-0.00497766
-0.00722013
-0.0100544
-0.0130859
-0.0158675
-0.0180281
-0.0193378
-0.0199125
-0.0200483
-0.020213
-0.0206244
-0.0213732
-0.0222836
-0.022907
-0.0228601
-0.0218528
-0.0198786
-0.017134
-0.0139249
-0.0104839
-0.0068923
-0.00299788
0.00142945
0.00665965
0.0127374
0.0195285
0.0266931
0.0338367
0.0406262
0.0468604
0.0525983
0.0580581
0.0634033
0.0687973
0.0740569
0.0789366
0.0829491
0.0857317
0.0870807
0.0869738
0.0856319
0.0833317
0.0803866
0.0771216
0.0737318
0.0704188
0.0674706
0.0652896
0.0643962
0.0652894
0.0681163
0.0724447
0.0770892
0.0804124
0.0806126
0.0762915
0.0669277
0.0530289
0.0360828
0.0180203
0.000933227
-0.0136147
-0.024616
-0.0318374
-0.0356504
-0.0369741
-0.0369405
-0.0366659
-0.0369517
-0.0381515
-0.0401836
-0.0426381
-0.0450396
-0.0469291
-0.0481808
-0.0489095
-0.0494026
-0.049936
-0.0506021
-0.0513091
-0.0518191
-0.0519015
-0.0516104
-0.0513632
-0.0521118
-0.0550144
-0.0611627
-0.07126
-0.0854951
-0.103429
-0.124537
-0.148243
-0.173996
-0.200946
-0.227266
-0.249614
-0.262737
-0.259886
-0.233034
-0.17394
-0.07536
0.0666316
0.249889
0.463433
0.686112
0.88768
1.03391
1.09461
1.05287
0.911494
0.694152
0.439802
0.192091
-0.0121351
-0.151651
-0.223918
-0.241683
-0.22584
-0.197323
-0.171188
-0.154466
-0.147581
-0.147411
-0.150011
-0.152619
-0.154051
-0.154293
-0.153851
-0.153121
-0.152162
-0.150887
-0.149193
-0.14695
-0.144038
-0.140596
-0.136792
-0.132935
-0.129381
-0.126406
-0.12426
-0.122962
-0.122374
-0.122272
-0.122349
-0.122303
-0.121913
-0.121097
-0.119815
-0.118126
-0.116188
-0.11406
-0.111791
-0.109363
-0.106693
-0.10374
-0.100491
-0.0970853
-0.093679
-0.0905426
-0.0879308
-0.0859303
-0.0844623
-0.0833916
-0.0824157
-0.0814418
-0.0804109
-0.0795435
-0.0791702
-0.0795822
-0.0808227
-0.0826902
-0.0846819
-0.0862747
-0.0870573
-0.0869748
-0.086266
-0.0854293
-0.084851
-0.0846772
-0.0847812
-0.0845997
-0.0836444
-0.0816538
-0.078729
-0.075376
-0.0722982
-0.0700748
-0.0689739
-0.0688316
-0.0693132
-0.0699938
-0.0707304
-0.0716152
-0.072975
-0.0750728
-0.0780241
-0.0815288
-0.084897
-0.0871291
-0.0871935
-0.0842279
-0.0779179
-0.0684443
-0.0566585
-0.0438401
-0.0314289
-0.0207249
-0.0125554
-0.00716433
-0.00425615
-0.0030499
-0.0026225
-0.00207805
-0.000761416
0.00175825
0.00559238
0.0107514
0.0171365
0.0246074
0.0329761
0.041863
0.0508405
0.0593841
0.0670879
0.0736382
0.0789478
0.0829969
0.0859977
0.0880453
0.089278
0.0897468
0.0896765
0.089195
0.0885167
0.0879294
0.0876099
0.0875241
0.0876518
0.0878134
0.0878609
0.0876828
0.08729
0.0867329
0.0860564
0.0853264
0.0844908
0.0835562
0.0825096
0.0813873
0.0801892
0.0790653
0.0779579
0.0769194
0.0758365
0.0746555
0.0732492
0.0715383
0.0693468
0.0666652
0.0635114
0.0599875
0.0562494
0.0524981
0.0488066
0.0452256
0.0417569
0.038397
0.0351981
0.0322244
0.0296376
0.0274954
0.0258983
0.0247774
0.0240298
0.0234622
0.022896
0.0220943
0.0209873
0.0195029
0.0176864
0.015563
0.0131332
0.0103983
0.00734574
0.0039758
0.000373501
-0.00328414
-0.0067904
-0.00988894
-0.0124272
-0.0143555
-0.0157265
-0.0167224
-0.0175183
-0.0181945
-0.0187946
-0.0192999
-0.0196894
-0.019993
-0.0203508
-0.0208574
-0.0215284
-0.0222417
-0.022701
-0.0225528
-0.021486
-0.0195255
-0.0168849
-0.0141083
-0.0117968
-0.0104456
-0.0102691
-0.0112399
-0.0129986
-0.0150882
-0.0170562
-0.0185365
-0.0193816
-0.0195495
-0.0190683
-0.0182005
-0.0171877
-0.0162878
-0.0158454
-0.0159577
-0.0165467
-0.0173171
-0.017772
-0.017199
-0.0149549
-0.0104923
-0.00371085
0.0052372
0.0156695
0.026657
0.037292
0.0468962
0.0552071
0.0624107
0.0688979
0.0749921
0.0807158
0.0856738
0.0892046
0.090635
0.0895356
0.0860676
0.0808651
0.0749268
0.0693409
0.064889
0.0618357
0.0598731
0.0583278
0.0565511
0.0542693
0.0517556
0.0499622
0.049904
0.0523073
0.0570994
0.0631487
0.0685015
0.0710087
0.0689123
0.06136
0.0487462
0.0325356
0.0147688
-0.00235971
-0.0171143
-0.0284895
-0.0362525
-0.0408427
-0.0431649
-0.0441902
-0.0448789
-0.0458341
-0.0473217
-0.0492392
-0.0513905
-0.0535023
-0.0553977
-0.0570478
-0.0584243
-0.0594594
-0.0599793
-0.059891
-0.0591695
-0.0580951
-0.0573364
-0.0580028
-0.061675
-0.070101
-0.0847767
-0.106661
-0.135417
-0.169032
-0.203278
-0.23186
-0.246933
-0.239904
-0.202332
-0.127029
-0.00972481
0.148984
0.341478
0.551765
0.755785
0.924214
1.02798
1.04538
0.968415
0.806422
0.584824
0.339277
0.106903
-0.0823209
-0.211569
-0.278868
-0.294516
-0.275739
-0.240672
-0.203789
-0.173895
-0.154189
-0.143992
-0.140544
-0.140735
-0.142343
-0.144013
-0.145256
-0.145946
-0.146135
-0.145813
-0.144917
-0.143456
-0.141443
-0.139154
-0.136925
-0.135165
-0.134069
-0.133595
-0.133385
-0.132854
-0.131365
-0.128572
-0.124428
-0.119309
-0.113845
-0.108657
-0.104324
-0.101005
-0.0987164
-0.0972428
-0.0963518
-0.0958502
-0.0956181
-0.09552
-0.0952994
-0.0946652
-0.0933462
-0.091061
-0.0878789
-0.0839827
-0.0799149
-0.0762996
-0.073688
-0.0724395
-0.0725742
-0.0737878
-0.0756507
-0.077657
-0.0793754
-0.0806164
-0.0813271
-0.0815791
-0.0815075
-0.0812217
-0.0807743
-0.0802203
-0.079553
-0.0788838
-0.0782764
-0.077748
-0.0773263
-0.0769866
-0.0766513
-0.0761919
-0.075584
-0.0749215
-0.0743262
-0.0739193
-0.0739601
-0.0745133
-0.0755398
-0.0768793
-0.0782654
-0.0793254
-0.0797129
-0.0790722
-0.077068
-0.073506
-0.0683247
-0.0616187
-0.0535685
-0.0445815
-0.0351669
-0.0259198
-0.0173893
-0.0100458
-0.00411681
0.000432651
0.00380036
0.00623938
0.00797312
0.00917863
0.00988515
0.0101048
0.0100173
0.00994441
0.0105011
0.0123763
0.0161605
0.0221345
0.0300818
0.0393385
0.0489292
0.0578203
0.0652797
0.0710092
0.0751101
0.0779449
0.0798554
0.0810999
0.0817645
0.0819697
0.0818687
0.0816707
0.0816395
0.0818701
0.0822813
0.0825079
0.0820641
0.0805791
0.0778601
0.0742309
0.0702124
0.0664836
0.0637375
0.0622605
0.0620753
0.0628262
0.0639108
0.0646529
0.0645791
0.0634403
0.0613209
0.0585941
0.0557014
0.0530377
0.0507584
0.048746
0.0467225
0.0444462
0.0417184
0.0384577
0.0347708
0.0308058
0.0267091
0.0226335
0.0188082
0.015424
0.0126585
0.0107375
0.0095925
0.00912123
0.00896577
0.00871023
0.00803042
0.00673582
0.0047933
0.0024796
0.000119476
-0.00196919
-0.00358902
-0.00478253
-0.00575639
-0.00675246
-0.00792111
-0.00928326
-0.0108023
-0.0123954
-0.0141599
-0.0162461
-0.0188074
-0.0219066
-0.0254485
-0.0291758
-0.0326648
-0.0356358
-0.0378892
-0.0393792
-0.0401248
-0.040121
-0.0394332
-0.0380465
-0.0359821
-0.03338
-0.03043
-0.0274367
-0.024774
-0.0228212
-0.0217633
-0.0216832
-0.0224202
-0.0237477
-0.0253454
-0.0269598
-0.0284685
-0.0299412
-0.0315108
-0.0333255
-0.0353173
-0.0371177
-0.0381068
-0.0374976
-0.0345011
-0.0287469
-0.0203561
-0.00995973
0.00140523
0.0125951
0.0227837
0.0316038
0.0391634
0.0458934
0.052315
0.0588058
0.0654196
0.0719002
0.0777831
0.0825338
0.0856473
0.0867773
0.0858944
0.0831783
0.0790272
0.0739709
0.0685764
0.0632455
0.0583386
0.0540684
0.0506693
0.0485641
0.0481113
0.0492693
0.0514618
0.0534588
0.0535995
0.050302
0.0426175
0.0306384
0.0155341
-0.000769253
-0.0160626
-0.0285245
-0.037058
-0.0415518
-0.0427355
-0.0418977
-0.040582
-0.0401512
-0.0414252
-0.0445108
-0.0488978
-0.0536813
-0.0580085
-0.0612182
-0.0631147
-0.0639439
-0.0641084
-0.0639179
-0.0634706
-0.0625876
-0.0610012
-0.0585479
-0.0553392
-0.0519551
-0.0496292
-0.0499976
-0.0549755
-0.0662621
-0.0850735
-0.111523
-0.143912
-0.178181
-0.207685
-0.223181
-0.213296
-0.166164
-0.0722901
0.0718743
0.260158
0.474349
0.684933
0.855997
0.953665
0.955539
0.85813
0.679019
0.452754
0.221203
0.0221253
-0.120179
-0.198853
-0.222713
-0.209954
-0.180681
-0.150852
-0.129339
-0.118464
-0.116368
-0.119596
-0.124826
-0.129918
-0.13379
-0.136033
-0.136463
-0.135182
-0.13266
-0.129506
-0.126367
-0.123785
-0.122033
-0.120969
-0.120117
-0.118899
-0.116658
-0.113107
-0.108197
-0.102375
-0.0962753
-0.0907738
-0.0866445
-0.0843834
-0.0840708
-0.085303
-0.0873505
-0.0892931
-0.0904488
-0.090438
-0.0894469
-0.0878867
-0.0863505
-0.0853327
-0.0849448
-0.0849319
-0.084782
-0.0839203
-0.0818582
-0.0784424
-0.0738295
-0.0685168
-0.0632079
-0.0585173
-0.0550806
-0.0531653
-0.0527267
-0.0534219
-0.054821
-0.0563947
-0.0577993
-0.058802
-0.05933
-0.0594084
-0.0590663
-0.0584454
-0.0576388
-0.0567599
-0.0559352
-0.0551873
-0.0546592
-0.0545343
-0.0550099
-0.0563875
-0.0588118
-0.062274
-0.066522
-0.0710807
-0.0754339
-0.0791507
-0.0819507
-0.0838422
-0.0850725
-0.0860425
-0.0871025
-0.088464
-0.0899527
-0.0909998
-0.0907869
-0.0883922
-0.0833303
-0.0756364
-0.0659519
-0.055374
-0.04507
-0.0359242
-0.0281628
-0.0214893
-0.0152522
-0.00866236
-0.00125129
0.00709986
0.016036
0.0250479
0.0336416
0.0415858
0.0489539
0.0560489
0.0632571
0.0708132
0.0787687
0.0868944
0.0948009
0.101859
0.107508
0.111025
0.112004
0.11033
0.106261
0.100633
0.0946335
0.0896214
0.0865155
0.0856664
0.0866719
0.0885758
0.0902403
0.0907222
0.0896776
0.0874145
0.0847809
0.0827134
0.0818151
0.0821784
0.0833005
0.0843383
0.0844579
0.0832146
0.080592
0.0770591
0.0732679
0.0698422
0.0670295
0.0646518
0.0623578
0.0596885
0.0564724
0.0527246
0.0488611
0.0454266
0.0428337
0.0412506
0.0404135
0.0397768
0.0386508
0.0364943
0.0330626
0.0286044
0.0237781
0.0194915
0.016558
0.0154625
0.0161991
0.0182646
0.0208897
0.0232743
0.0246833
0.0246442
0.0230352
0.0200265
0.0159435
0.0112735
0.00655361
0.00225663
-0.00122001
-0.00374804
-0.00534986
-0.00629668
-0.00677514
-0.00707077
-0.00733354
-0.00767696
-0.00809915
-0.00850446
-0.00877462
-0.00880883
-0.00857343
-0.00817369
-0.00771349
-0.00736312
-0.00714526
-0.00703479
-0.00678272
-0.00621099
-0.00520972
-0.00399274
-0.00286826
-0.00231903
-0.00266957
-0.00394795
-0.00582322
-0.00760146
-0.00849999
-0.0077682
-0.00505406
-0.000347224
0.00594729
0.0133124
0.0211794
0.0290297
0.0365308
0.0434787
0.0498131
0.0556297
0.0609334
0.0658289
0.0703502
0.0745766
0.0783992
0.08177
0.0844885
0.0864505
0.0874537
0.0873956
0.0862563
0.0841118
0.0811682
0.0777151
0.0741219
0.070766
0.0680029
0.0661456
0.0655338
0.0662931
0.0681477
0.0704986
0.0722207
0.072078
0.0688149
0.0615614
0.050177
0.0351961
0.0179408
9.80253e-5
-0.0165163
-0.0304502
-0.0407815
-0.0473661
-0.0507045
-0.0516852
-0.0513671
-0.0505539
-0.0497359
-0.0490585
-0.0485599
-0.0482409
-0.0483241
-0.0490229
-0.050541
-0.0528338
-0.0554109
-0.0577021
-0.0590857
-0.0592674
-0.0583937
-0.0572711
-0.0573336
-0.0604131
-0.0684628
-0.0830723
-0.10514
-0.134074
-0.167134
-0.199049
-0.222024
-0.2262
-0.200649
-0.135032
-0.0222843
0.138334
0.338434
0.558583
0.769392
0.936015
1.02598
1.01817
0.90976
0.718693
0.479743
0.235233
0.0237313
-0.129478
-0.216718
-0.246282
-0.236464
-0.207836
-0.176787
-0.152605
-0.137979
-0.131285
-0.129403
-0.129528
-0.12996
-0.130225
-0.130288
-0.130325
-0.130569
-0.131287
-0.132622
-0.134563
-0.136832
-0.138942
-0.140299
-0.140443
-0.139153
-0.136524
-0.132989
-0.129073
-0.125355
-0.122337
-0.120227
-0.118888
-0.117929
-0.116771
-0.114833
-0.111813
-0.107731
-0.102909
-0.0980663
-0.0937775
-0.09057
-0.088601
-0.0878282
-0.0880088
-0.0888028
-0.0898467
-0.0908222
-0.091539
-0.0918697
-0.0918043
-0.0914151
-0.0907776
-0.0899482
-0.0889484
-0.0876798
-0.0860787
-0.0840727
-0.0816649
-0.0789863
-0.0762527
-0.0736786
-0.0715057
-0.0698482
-0.0688726
-0.0685471
-0.0688108
-0.0694289
-0.0701467
-0.0706656
-0.070825
-0.0705519
-0.0700155
-0.0694903
-0.0692898
-0.0697809
-0.0711845
-0.0735925
-0.0770094
-0.0812798
-0.0861447
-0.091452
-0.0968847
-0.102211
-0.107125
-0.111219
-0.113898
-0.114464
-0.112226
-0.106714
-0.0979488
-0.0864436
-0.0732927
-0.0598131
-0.0473031
-0.036725
-0.0284901
-0.0225071
-0.0182263
-0.014946
-0.0118592
-0.00836577
-0.00391257
0.00183066
0.0091545
0.0179559
0.0279327
0.0384643
0.0487048
0.057987
0.0658571
0.0722707
0.0775965
0.0823213
0.0869025
0.0915336
0.0961273
0.100324
0.103775
0.10624
0.107626
0.108105
0.107989
0.107562
0.107078
0.106737
0.106388
0.10597
0.105224
0.104023
