0.0786176
0.0750742
0.0709884
0.066731
0.0627433
0.0593517
0.0566899
0.0545679
0.0526394
0.050518
0.0480074
0.0451789
0.0423518
0.0398713
0.0381217
0.0371078
0.0366618
0.0364359
0.0360935
0.0354441
0.0345092
0.0334494
0.0325971
0.0321335
0.0321011
0.0323185
0.0325263
0.0323741
0.0315713
0.0299474
0.0274629
0.0243609
0.0209571
0.0176517
0.0147947
0.0126888
0.0114905
0.0111247
0.0114392
0.012207
0.0131413
0.0139912
0.0145976
0.0149864
0.0152469
0.0155841
0.0162891
0.0176251
0.0195992
0.022148
0.0251311
0.0284077
0.0319817
0.0360118
0.0407321
0.0463961
0.0531229
0.0607828
0.069039
0.0774104
0.0853104
0.0922492
0.097756
0.101523
0.103334
0.103104
0.100975
0.0974876
0.0934951
0.0900356
0.088168
0.0887626
0.0919299
0.0970507
0.102656
0.106785
0.107465
0.103404
0.0942644
0.0807059
0.0641479
0.0462741
0.0284825
0.01178
-0.00333061
-0.0165382
-0.0274348
-0.0356573
-0.0408336
-0.0429981
-0.0427418
-0.0410612
-0.0391477
-0.0379759
-0.038171
-0.0397764
-0.0424097
-0.0455029
-0.0483694
-0.0506082
-0.0520262
-0.0526351
-0.0525271
-0.05195
-0.0511873
-0.0505661
-0.050513
-0.0518393
-0.055783
-0.0640044
-0.0782172
-0.0996907
-0.128552
-0.162929
-0.198252
-0.227228
-0.240334
-0.2269
-0.176271
-0.079716
0.0671711
0.261511
0.490612
0.730646
0.948072
1.10527
1.16928
1.12181
0.966191
0.728802
0.452946
0.187205
-0.0277603
-0.169199
-0.23548
-0.242419
-0.214797
-0.176943
-0.145862
-0.128851
-0.125367
-0.130605
-0.139233
-0.147273
-0.15298
-0.156246
-0.157691
-0.157934
-0.157291
-0.155997
-0.154169
-0.151991
-0.149661
-0.147442
-0.145521
-0.143929
-0.142482
-0.140854
-0.13866
-0.135588
-0.1316
-0.126923
-0.122015
-0.117438
-0.113748
-0.111207
-0.109821
-0.109369
-0.109349
-0.10927
-0.108683
-0.107352
-0.105231
-0.102439
-0.0992777
-0.0959933
-0.0926698
-0.0894024
-0.0860759
-0.0826503
-0.0791362
-0.0757692
-0.0728595
-0.0707896
-0.0697648
-0.0697802
-0.0705404
-0.0714732
-0.0720187
-0.0717388
-0.070475
-0.0685617
-0.0664645
-0.0647064
-0.0636156
-0.0632697
-0.0635665
-0.0642449
-0.0652248
-0.0665278
-0.0681999
-0.0702363
-0.0725059
-0.0745555
-0.075927
-0.0763655
-0.075859
-0.0747862
-0.0738393
-0.0736145
-0.0745548
-0.0767019
-0.0795352
-0.0825377
-0.084925
-0.0861844
-0.0858487
-0.0834508
-0.0786085
-0.0709358
-0.0602948
-0.0468931
-0.0314277
-0.0150446
0.000970245
0.0154432
0.0276505
0.0374533
0.0452006
0.0515264
0.0570734
0.0624414
0.0678414
0.073244
0.0783899
0.0829321
0.0866114
0.0893478
0.0911293
0.0922952
0.0930273
0.093666
0.09439
0.0952757
0.0962502
0.0971781
0.0979834
0.0985747
0.0990237
0.0993602
0.0996592
0.0999131
0.100014
0.0998455
0.0991832
0.0978022
0.0954341
0.0919726
0.0875056
0.0822615
0.0768191
0.0718366
0.0679421
0.0655126
0.0645491
0.0646847
0.0653746
0.0661222
0.066562
0.0664259
0.0656228
0.0640065
0.0613575
0.0575053
0.0523574
0.0461882
0.0394732
0.0329122
0.0271613
0.0226286
0.0194119
0.0173415
0.0161592
0.0155945
0.0153724
0.0154754
0.0156996
0.0158845
0.0157833
0.0151891
0.0141344
0.0128025
0.0116309
0.0109439
0.010878
0.0113051
0.0118032
0.0118145
0.0108863
0.00883883
0.00584268
0.00226574
-0.00137064
-0.00462006
-0.00709092
-0.00860402
-0.00913206
-0.00879891
-0.00786882
-0.00669342
-0.00565345
-0.00504757
-0.00495181
-0.00519583
-0.00544986
-0.00534398
-0.00473171
-0.00362172
-0.00232165
-0.00112386
-4.9656e-5
0.00107943
0.00268717
0.00521154
0.0088354
0.0133772
0.0183423
0.0231638
0.0274229
0.0311322
0.0345817
0.038297
0.0428475
0.048524
0.0554934
0.063637
0.0727007
0.0822599
0.0916356
0.0998721
0.105892
0.108639
0.107557
0.102947
0.0961361
0.0891407
0.0841459
0.0828681
0.0857926
0.0920498
0.0993815
0.104929
0.105992
0.100849
0.0892326
0.0722396
0.0520746
0.0312136
0.0118529
-0.0044549
-0.0171664
-0.0264891
-0.0330169
-0.0376473
-0.0411355
-0.0440489
-0.046794
-0.0495014
-0.052064
-0.0543072
-0.0562461
-0.0579071
-0.0595977
-0.0616651
-0.0642938
-0.0673828
-0.0704912
-0.073121
-0.0748626
-0.0759061
-0.0769759
-0.0792427
-0.0840518
-0.0922707
-0.104261
-0.119952
-0.139034
-0.16144
-0.187074
-0.214965
-0.242063
-0.262198
-0.265449
-0.238767
-0.168428
-0.0444448
0.134595
0.356959
0.596218
0.81434
0.969467
1.0273
0.972079
0.812901
0.582109
0.32641
0.0931843
-0.082783
-0.186824
-0.224826
-0.216678
-0.186684
-0.15505
-0.133135
-0.123568
-0.123364
-0.127753
-0.132821
-0.136484
-0.138261
-0.138644
-0.138182
-0.137261
-0.136123
-0.134835
-0.133566
-0.132305
-0.130994
-0.129552
-0.127966
-0.126295
-0.124692
-0.123383
-0.122464
-0.121945
-0.121712
-0.121547
-0.121207
-0.120535
-0.119387
-0.117684
-0.115285
-0.112044
-0.10791
-0.102998
-0.0976827
-0.0924567
-0.0879342
-0.0845067
-0.0823277
-0.0812243
-0.0807438
-0.0804164
-0.0799291
-0.0792014
-0.078448
-0.0779103
-0.0777944
-0.0781153
-0.0787137
-0.0793143
-0.0796682
-0.0796163
-0.0791078
-0.0781151
-0.0767477
-0.0750966
-0.0732106
-0.071169
-0.0688891
-0.0662879
-0.0632723
-0.0598224
-0.0560946
-0.0525083
-0.0495447
-0.0476074
-0.0468931
-0.0473385
-0.0487693
-0.0510854
-0.0543178
-0.0586529
-0.0641506
-0.0706198
-0.077474
-0.0838601
-0.0889548
-0.0923014
-0.0939839
-0.0944271
-0.0941305
-0.0932235
-0.0911811
-0.0869502
-0.0793174
-0.0674168
-0.0512412
-0.0318111
-0.0110813
0.00863981
0.0252147
0.0372479
0.0445322
0.0478677
0.0488166
0.049159
0.0503741
0.0531959
0.0575279
0.0626599
0.0676125
0.0713723
0.0732819
0.0730918
0.071089
0.06783
0.0640827
0.0608141
0.0587133
0.0582268
0.0592127
0.0610178
0.062631
0.0629237
0.0611768
0.0571399
0.051283
0.0446382
0.0383251
0.0333721
0.0303454
0.0293919
0.0299997
0.0314344
0.0328246
0.0334616
0.0329259
0.031245
0.0287421
0.0259295
0.0233266
0.021282
0.0199771
0.019223
0.0186197
0.0177056
0.016152
0.0138289
0.0108013
0.00739498
0.0038644
0.000434509
-0.0028756
-0.00624653
-0.00996712
-0.0141237
-0.0184268
-0.0224057
-0.0253065
-0.0265913
-0.0261065
-0.0241626
-0.0214197
-0.0186725
-0.0165756
-0.0153895
-0.0151059
-0.0155453
-0.0166534
-0.0184528
-0.0209268
-0.0239527
-0.0270885
-0.0297212
-0.0312741
-0.0316395
-0.0311128
-0.0304562
-0.0304569
-0.0316639
-0.0339738
-0.0367574
-0.0390917
-0.0402268
-0.0399878
-0.038907
-0.0379016
-0.0378718
-0.0392467
-0.0416128
-0.0438776
-0.0447581
-0.0432747
-0.0393757
-0.0339155
-0.0284789
-0.0247326
-0.0236831
-0.0254506
-0.0291932
-0.0336033
-0.0373795
-0.039763
-0.0406232
-0.0402926
-0.0390618
-0.0369457
-0.0336041
-0.0285912
-0.0216625
-0.01319
-0.00405154
0.00461693
0.0118816
0.0174352
0.0214835
0.0247179
0.0278377
0.0312924
0.0351676
0.0393123
0.0435644
0.0478918
0.0523993
0.057179
0.0621087
0.0667566
0.0704792
0.0727248
0.0733743
0.0727913
0.0716277
0.0706054
0.0702008
0.0705033
0.0711396
0.0715339
0.0710183
0.0690068
0.0649739
0.0583996
0.0488729
0.0362438
0.0209176
0.0039018
-0.0131532
-0.0283823
-0.0403139
-0.0481853
-0.0521572
-0.053113
-0.0524573
-0.0515374
-0.0513013
-0.05211
-0.0538496
-0.0561862
-0.0586237
-0.0608388
-0.0627693
-0.0645442
-0.0664588
-0.0686348
-0.0710286
-0.0732293
-0.0746434
-0.0746573
-0.0729565
-0.0698434
-0.0664903
-0.0648991
-0.06745
-0.0765291
-0.0937155
-0.119269
-0.151339
-0.185622
-0.215098
-0.230444
-0.220788
-0.174856
-0.0832709
0.0586666
0.247412
0.4686
0.696404
0.896221
1.03156
1.07327
1.00861
0.846393
0.615865
0.35929
0.120207
-0.0681508
-0.190018
-0.247852
-0.257526
-0.240046
-0.213954
-0.190783
-0.174573
-0.164195
-0.156781
-0.150071
-0.143455
-0.137787
-0.134226
-0.133429
-0.135045
-0.137976
-0.140854
-0.142491
-0.142341
-0.140602
-0.138151
-0.13621
-0.135779
-0.137368
-0.140578
-0.144351
-0.147208
-0.147865
-0.14555
-0.140338
-0.133062
-0.124909
-0.117287
-0.111336
-0.107768
-0.106744
-0.107824
-0.109898
-0.11157
-0.111608
-0.109255
-0.104548
-0.0983837
-0.0920903
-0.0867977
-0.0831973
-0.0812484
-0.0804331
-0.0802493
-0.0804077
-0.0810163
-0.0822892
-0.0844064
-0.0870914
-0.089804
-0.0918824
-0.092831
-0.092606
-0.0913884
-0.0896388
-0.0878332
-0.0863012
-0.0850912
-0.0842027
-0.0836092
-0.0832164
-0.0829591
-0.082821
-0.0827141
-0.0827769
-0.0832656
-0.084531
-0.0869807
-0.0907999
-0.0958462
-0.10159
-0.107439
-0.11283
-0.117502
-0.121598
-0.125462
-0.129382
-0.133374
-0.136981
-0.139358
-0.139518
-0.13661
-0.130213
-0.120456
-0.10812
-0.0943972
-0.0805781
-0.067721
-0.0563832
-0.0465128
-0.0374624
-0.0283507
-0.0183744
-0.0070262
0.00563496
0.0191929
0.0329643
0.0462448
0.0585608
0.0696519
0.0794536
0.0880586
0.0955035
0.101835
0.107102
0.111301
0.114501
0.116773
0.118314
0.119275
0.119826
0.120152
0.120361
0.120404
0.120248
0.119802
0.11901
0.117887
0.116575
0.11525
0.114168
0.113518
0.113394
0.113865
0.114746
0.115789
0.116594
0.116688
0.115687
0.113379
0.109791
0.105201
0.100018
0.0947368
0.089783
0.0854488
0.0819265
0.0792951
0.0774707
0.0764115
0.0758783
0.075579
0.0752029
0.0744948
0.0733125
0.0717699
0.0701265
0.0687296
0.0678597
0.0675145
0.0673645
0.0668188
0.0652668
0.0622414
0.0577058
0.0520897
0.0460636
0.0404477
0.03585
0.032606
0.0306276
0.0295952
0.0291019
0.028671
0.0281042
0.0273058
0.0263345
0.0253015
0.0243627
0.0236894
0.0234177
0.023635
0.024285
0.025214
0.0261041
0.0266191
0.0263929
0.0252282
0.0230303
0.0199681
0.0162822
0.0122331
0.00814572
0.00431194
0.000974739
-0.00165729
-0.00346322
-0.0044626
-0.00475755
-0.00454218
-0.00397401
-0.00327337
-0.00249785
-0.00181728
-0.00123895
-0.000785183
-0.000481076
-0.000253368
-4.1511e-5
0.000299791
0.000793621
0.00139355
0.00195529
0.00222446
0.00210744
0.00160223
0.00108522
0.00117252
0.00251707
0.00552889
0.0103745
0.0167445
0.0241321
0.0319092
0.0395335
0.0468618
0.053878
0.0608246
0.0678418
0.0750591
0.0823742
0.0895323
0.0962221
0.102099
0.106906
0.110407
0.112598
0.113454
0.112965
0.111281
0.108696
0.105827
0.103523
0.102652
0.103938
0.107522
0.112711
0.117874
0.120794
0.119353
0.112046
0.0984337
0.0794382
0.0569641
0.0334858
0.0115112
-0.00703687
-0.020999
-0.0301446
-0.0350272
-0.0367107
-0.0364501
-0.0355804
-0.0351684
-0.0356313
-0.0369345
-0.0385998
-0.0400184
-0.0408101
-0.040821
-0.040306
-0.0396494
-0.0393228
-0.0394489
-0.0399034
-0.0404588
-0.0407416
-0.0404478
-0.0395725
-0.0383454
-0.0372722
-0.0371793
-0.0393117
-0.0453329
-0.0569375
-0.0755425
-0.101694
-0.134382
-0.1701
-0.202471
-0.222695
-0.220175
-0.183661
-0.102978
0.0284924
0.210959
0.435111
0.68028
0.914896
1.10092
1.20194
1.19336
1.07097
0.854246
0.582598
0.304754
0.0655025
-0.106037
-0.201759
-0.232675
-0.221506
-0.192965
-0.165881
-0.149673
-0.145327
-0.149114
-0.156123
-0.162713
-0.167284
-0.169728
-0.170537
-0.170142
-0.168754
-0.166551
-0.163714
-0.160608
-0.157488
-0.154516
-0.151724
-0.14901
-0.146319
-0.143553
-0.140796
-0.138212
-0.135979
-0.134337
-0.133392
-0.133152
-0.133448
-0.133913
-0.134155
-0.133814
-0.132727
-0.13084
-0.12839
-0.125727
-0.123196
-0.121068
-0.119244
-0.117476
-0.115329
-0.112476
-0.108899
-0.104809
-0.100731
-0.0972441
-0.0947073
-0.093278
-0.0928051
-0.092945
-0.0933216
-0.0936574
-0.0939332
-0.0941599
-0.0943933
-0.0947407
-0.0951309
-0.0954005
-0.0953502
-0.0948074
-0.0936971
-0.0921995
-0.0905804
-0.089176
-0.0883432
-0.0882311
-0.0888308
-0.0898946
-0.0910892
-0.0921532
-0.0928765
-0.0932644
-0.093599
-0.0941898
-0.0953311
-0.0970722
-0.0992774
-0.101542
-0.103372
-0.104335
-0.104074
-0.102325
-0.0989971
-0.0939814
-0.087171
-0.0785913
-0.0684059
-0.0569698
-0.0449962
-0.0333826
-0.0230285
-0.0145987
-0.00836677
-0.00407596
-0.000942018
0.00218752
0.00644497
0.0126218
0.0210979
0.0316087
0.0434533
0.055672
0.0673433
0.0778134
0.0867995
0.0944208
0.100985
0.106783
0.111989
0.116521
0.120265
0.123091
0.125049
0.126172
0.126689
0.126751
0.126385
0.125448
0.123941
0.121914
0.119644
0.117463
0.115654
0.114366
0.113443
0.112648
0.111615
0.110192
0.108449
0.10658
0.104949
0.103722
0.102841
0.102033
0.100872
0.0991542
0.0968865
0.0943437
0.0919677
0.0902306
0.08938
0.0893506
0.0897733
0.0902464
0.0902336
0.089366
0.0874766
0.0845043
0.0805772
0.0759639
0.0709703
0.0659081
0.061111
0.0568686
0.0533431
0.0506599
0.0488074
0.0476848
0.0470513
0.0465618
0.045847
0.0445365
0.0423777
0.0393924
0.0357844
0.031973
0.0283825
0.0253169
0.0228728
0.0209076
0.0191692
0.0173986
0.0153307
0.0129485
0.0103535
0.00775524
0.0053896
0.00353626
0.00245115
0.00215582
0.00262165
0.003564
0.00460254
0.00542341
0.00578846
0.00578532
0.00571146
0.00600344
0.00717557
0.00952695
0.0131859
0.0180139
0.0236568
0.0296668
0.03573
0.0415582
0.0469786
0.0518754
0.0561023
0.0595486
0.0622159
0.0642864
0.0662165
0.0686097
0.0720292
0.0768928
0.0831465
0.0902426
0.097204
0.102879
0.106257
0.10669
0.104186
0.099467
0.0937166
0.0885503
0.0853733
0.0851929
0.0882495
0.09384
0.100318
0.105531
0.107317
0.10414
0.0955508
0.082252
0.0657571
0.047952
0.0305265
0.0146272
0.00083703
-0.0107802
-0.020284
-0.0276695
-0.032941
-0.0361789
-0.0376339
-0.0378633
-0.0375144
-0.0372326
-0.037521
-0.0387133
-0.0407279
-0.0433337
-0.0460594
-0.0483991
-0.0500114
-0.0507481
-0.0507364
-0.0503575
-0.0500451
-0.0500613
-0.0503402
-0.0506042
-0.0503704
-0.0493777
-0.047792
-0.0464618
-0.0470011
-0.0516213
-0.0623883
-0.0808881
-0.107494
-0.140641
-0.176261
-0.207691
-0.2258
-0.219894
-0.178853
-0.0928884
0.0435664
0.228941
0.451557
0.688365
0.90652
1.06889
1.14276
1.1092
0.970232
0.750025
0.48924
0.233997
0.0233205
-0.120372
-0.19443
-0.212426
-0.196616
-0.168853
-0.144476
-0.130091
-0.125321
-0.126236
-0.128725
-0.130177
-0.12995
-0.128782
-0.127749
-0.127666
-0.128774
-0.13084
-0.133381
-0.13584
-0.137881
-0.139182
-0.139612
-0.13907
-0.137428
-0.134614
-0.13068
-0.125813
-0.120524
-0.115531
-0.111455
-0.108707
-0.107277
-0.106714
-0.106364
-0.105521
-0.103706
-0.100815
-0.0970364
-0.0927531
-0.0883942
-0.0843417
-0.0808428
-0.0780319
-0.0759476
-0.0746624
-0.074143
-0.074307
-0.0750377
-0.0760769
-0.0772142
-0.0781576
-0.0786615
-0.0785255
-0.0776067
-0.0759257
-0.0736077
-0.0709563
-0.0683022
-0.0659398
-0.0640073
-0.0625043
-0.0612264
-0.0599271
-0.0584341
-0.0568363
-0.0553461
-0.0542359
-0.0537234
-0.0538608
-0.0546383
-0.0559311
-0.0575857
-0.0595506
-0.0616963
-0.0639693
-0.0662227
-0.0684596
-0.0707446
-0.0732235
-0.0760485
-0.0791973
-0.0823104
-0.0847641
-0.0857814
-0.0846729
-0.0809503
-0.0744084
-0.0652367
-0.0538176
-0.0408238
-0.0271074
-0.0136674
-0.00160882
0.00817658
0.015102
0.0193175
0.0215544
0.0229218
0.0247393
0.0278982
0.0327834
0.0390266
0.0459032
0.0525546
0.0582508
0.0626465
0.0657884
0.0679015
0.0693067
0.0703347
0.0713573
0.0727141
0.0747313
0.077678
0.0815916
0.0862074
0.090957
0.0950846
0.0978175
0.0985681
0.0971288
0.0936611
0.0888097
0.0834134
0.0784044
0.0744813
0.0719972
0.0709274
0.0708518
0.0710588
0.0707606
0.0693096
0.0664324
0.0621513
0.057037
0.0519066
0.0476056
0.0447482
0.0434372
0.0432668
0.0433806
0.0428001
0.0408677
0.0374069
0.0327885
0.0278771
0.0235785
0.020601
0.0191185
0.0188981
0.0193095
0.0197559
0.0198127
0.0194362
0.018743
0.0179722
0.0172253
0.016453
0.0152869
0.0134085
0.0105514
0.00672595
0.00216346
-0.00271436
-0.00750024
-0.0118793
-0.0157627
-0.0192443
-0.0225394
-0.0257376
-0.0286968
-0.0311583
-0.0328343
-0.0336321
-0.0337362
-0.0335731
-0.0337109
-0.0344994
-0.0358969
-0.0376458
-0.0392328
-0.0402015
-0.0403396
-0.0397431
-0.0386765
-0.0374257
-0.0362278
-0.0352415
-0.0345519
-0.0343604
-0.0348992
-0.0363944
-0.0389348
-0.0424153
-0.0464278
-0.0504691
-0.0539883
-0.0566218
-0.0581335
-0.0586043
-0.0582331
-0.0573674
-0.0562811
-0.0552196
-0.054425
-0.0540154
-0.0540668
-0.0546045
-0.0553323
-0.0557876
-0.0553472
-0.0533529
-0.0492987
-0.0431495
-0.0353377
-0.0267398
-0.0182593
-0.0106962
-0.00434759
0.000944467
0.00561189
0.0101708
0.0150022
0.0201775
0.0254852
0.0306847
0.0354459
0.0396487
0.043363
0.0467553
0.0500995
0.0535498
0.0570302
0.0602824
0.0626711
0.0635073
0.0624072
0.0594501
0.0553125
0.0512724
0.0487149
0.0486959
0.0513323
0.0557003
0.0598587
0.0615309
0.0587853
0.0505499
0.0369004
0.01898
-0.00137561
-0.0222431
-0.041853
-0.058845
-0.0723753
-0.0819667
-0.0875464
-0.0895032
-0.0885534
-0.0856861
-0.0818971
-0.0779741
-0.0744502
-0.0715557
-0.0693317
-0.0678525
-0.0673395
-0.0682205
-0.0708517
-0.0753816
-0.0814034
-0.088045
-0.0941594
-0.0985266
-0.10031
-0.0993698
-0.0964368
-0.0926227
-0.0892822
-0.0876565
-0.0886537
-0.0929657
-0.101307
-0.114421
-0.133112
-0.157719
-0.187253
-0.218411
-0.245158
-0.258686
-0.248071
-0.201846
-0.110715
0.0295923
0.214726
0.429751
0.648737
0.8382
0.963718
0.998612
0.932079
0.773607
0.551734
0.306531
0.0790681
-0.0991939
-0.213103
-0.264672
-0.268559
-0.244978
-0.212497
-0.18374
-0.164337
-0.15465
-0.152202
-0.153743
-0.156564
-0.158791
-0.159226
-0.157295
-0.153108
-0.147549
-0.142012
-0.137927
-0.136207
-0.136817
-0.139067
-0.141709
-0.14363
-0.144198
-0.143419
-0.141783
-0.139922
-0.138175
-0.136681
-0.135268
-0.133748
-0.131887
-0.129551
-0.126736
-0.123496
-0.119914
-0.116171
-0.112524
-0.109206
-0.106586
-0.104822
-0.103976
-0.103841
-0.104168
-0.104651
-0.105235
-0.105917
-0.106879
-0.108298
-0.110075
-0.111838
-0.113014
-0.11305
-0.111889
-0.109942
-0.107995
-0.106763
-0.106633
-0.107346
-0.107984
-0.107523
-0.105288
-0.101328
-0.0965151
-0.09219
-0.0896169
-0.0895115
-0.0917727
-0.0957156
-0.100308
-0.104721
-0.108495
-0.111592
-0.114168
-0.116346
-0.1181
-0.119352
-0.120061
-0.120576
-0.121393
-0.123202
-0.126471
-0.131181
-0.136673
-0.141692
-0.144749
-0.144411
-0.139821
-0.130892
-0.118262
-0.103261
-0.0874096
-0.0720983
-0.058283
-0.0462289
-0.0357429
-0.0262122
-0.0170018
-0.00750304
0.00244534
0.0127272
0.0227999
0.032095
0.0401574
0.0471184
0.0535308
0.0602831
0.068164
0.0775243
0.0879946
0.098618
0.108217
0.115952
0.121534
0.125486
0.128611
0.131676
0.134885
0.13792
0.140008
0.140347
0.138595
0.134905
0.130037
0.124922
0.120437
0.11707
0.114803
0.11323
0.111837
0.11018
0.108028
0.10542
0.102486
0.0991499
0.0953329
0.0909123
0.0860399
0.0811965
0.0774801
0.0760404
0.0777839
0.082745
0.0899045
0.0972563
0.102565
0.104051
0.101041
0.0942274
0.085365
0.0765212
0.0694196
0.0648084
0.0624343
0.061317
0.0602507
0.0583269
0.0553461
0.0516185
0.0477989
0.0445345
0.0420473
0.0401583
0.0384935
0.0367386
0.034841
0.0331683
0.0323356
0.0328649
0.0349484
0.0382034
0.0417834
0.0448103
0.0465392
0.0467721
0.0458235
0.0442752
0.0426744
0.0412703
0.0399612
0.0384245
0.0364329
0.0339989
0.0313447
0.0288312
0.026581
0.0245283
0.022394
0.0199714
0.0172216
0.0144639
0.0121059
0.0105724
0.00996725
0.0101449
0.0108157
0.0117382
0.0128708
0.0142063
0.0159021
0.0178452
0.0198314
0.0215723
0.022984
0.0241149
0.0253652
0.0272022
0.029932
0.0336165
0.0379653
0.0425501
0.0471402
0.0516612
0.0562905
0.0614153
0.0673676
0.0742106
0.0818094
0.0898424
0.0979174
0.105689
0.112907
0.11932
0.12466
0.128566
0.13059
0.130518
0.128325
0.124405
0.119536
0.114752
0.111038
0.108971
0.10871
0.109712
0.110941
0.111153
0.109066
0.103758
0.0949055
0.0826966
0.0678675
0.0515238
0.0349522
0.0193729
0.00574366
-0.00530625
-0.0136206
-0.0193196
-0.0228144
-0.024654
-0.0254622
-0.0257613
-0.0259689
-0.0263836
-0.0272294
-0.0287246
-0.0310412
-0.0342084
-0.0381966
-0.0426673
-0.0469265
-0.0501405
-0.0516229
-0.0510667
-0.0488704
-0.0462084
-0.0448812
-0.0467581
-0.0532161
-0.0649067
-0.0816604
-0.10293
-0.12798
-0.155966
-0.185627
-0.21439
-0.237483
-0.247956
-0.237046
-0.195
-0.112759
0.0157852
0.190912
0.404442
0.637921
0.862758
1.04375
1.1463
1.14601
1.03698
0.835677
0.578033
0.310241
0.0760892
-0.0943471
-0.190757
-0.221709
-0.208046
-0.173825
-0.138639
-0.113326
-0.100417
-0.0971542
-0.0990278
-0.102213
-0.104656
-0.105961
-0.106478
-0.106674
-0.106674
-0.10648
-0.105947
-0.105016
-0.103668
-0.102027
-0.100327
-0.0987917
-0.097543
-0.0966831
-0.0961671
-0.0958309
-0.095396
-0.0946742
-0.0934712
-0.0916938
-0.0892954
-0.0864263
-0.0832096
-0.0799208
-0.0768351
-0.0741829
-0.0720939
-0.0705018
-0.0693254
-0.0682839
-0.0672044
-0.0658521
-0.0641982
-0.0623131
-0.060386
-0.0587107
-0.0575695
-0.0571366
-0.0575299
-0.0586025
-0.0600759
-0.0614993
-0.0624908
-0.0626437
-0.0617745
-0.0600027
-0.0576248
-0.0550988
-0.0529329
-0.0514012
-0.0504889
-0.0500311
-0.0496278
-0.0489961
-0.0479118
-0.046527
-0.0451136
-0.0441764
-0.0442015
-0.0454869
-0.0482551
-0.0524937
-0.0578788
-0.0641216
-0.0708033
-0.0776031
-0.0842547
-0.0905959
-0.0963797
-0.10141
-0.105341
-0.107833
-0.108545
-0.107176
-0.103363
-0.0968365
-0.0873498
-0.0746646
-0.0587346
-0.0397629
-0.018414
0.00418751
0.0265025
0.0468935
0.0639458
0.076736
0.08523
0.0901616
0.0927778
0.094561
0.0967848
0.100204
0.105008
0.110872
0.117171
0.123185
0.128218
0.131827
0.133776
0.134204
0.133443
0.132005
0.130464
0.129339
0.128964
0.129426
0.130497
0.131788
0.132773
0.133025
0.132327
0.130689
0.128288
0.12541
0.122217
0.118858
0.115337
0.11167
0.107932
0.104344
0.101121
0.0983881
0.0961489
0.0942039
0.0922386
0.0899799
0.0872463
0.0841128
0.0807941
0.0775458
0.0746508
0.0721809
0.0700582
0.0682054
0.066581
0.0651481
0.0638808
0.0626848
0.0613673
0.0595906
0.0570848
0.0537003
0.0496015
0.0452318
0.041242
0.0381031
0.036092
0.03512
0.0347548
0.0344151
0.0336331
0.0321249
0.0299942
0.0276204
0.0255047
0.02414
0.0236745
0.0240903
0.0252057
0.0268311
0.0288438
0.0313963
0.0347501
0.0391919
0.0448033
0.051446
0.0586804
0.0659661
0.0727508
0.0786983
0.0836215
0.0876053
0.0907605
0.0932074
0.0950371
0.0962592
0.0968675
0.096707
0.0956237
0.0934185
0.0901078
0.0859913
0.0817302
0.0782141
0.0763911
0.0768545
0.0795674
0.083587
0.0871468
0.0881714
0.0849896
0.0766762
0.0634448
0.0464683
0.0274803
0.00828329
-0.00970956
-0.0256413
-0.0391114
-0.0499275
-0.0580221
-0.0632706
-0.0658189
-0.0661325
-0.0650743
-0.0635818
-0.0625842
-0.0626646
-0.0638972
-0.0659671
-0.0682523
-0.0701195
-0.0711358
-0.0712372
-0.0705677
-0.0693827
-0.0680175
-0.0667708
-0.0657805
-0.0652001
-0.0655068
-0.067704
-0.0733787
-0.0844048
-0.102509
-0.128628
-0.161992
-0.199651
-0.235926
-0.262772
-0.270205
-0.247207
-0.183059
-0.0700128
0.0935051
0.299415
0.527576
0.746465
0.918151
1.00721
0.991313
0.869458
0.663975
0.415406
0.170879
-0.0293406
-0.162079
-0.225019
-0.232818
-0.208889
-0.17583
-0.148864
-0.133984
-0.129947
-0.132364
-0.136842
-0.140839
-0.143621
-0.145598
-0.147136
-0.14828
-0.148678
-0.148066
-0.146391
-0.143874
-0.140775
-0.13727
-0.133555
-0.129696
-0.125805
-0.122076
-0.118671
-0.115725
-0.113139
-0.11079
-0.108411
-0.105958
-0.103598
-0.101715
-0.100685
-0.100677
-0.101467
-0.102515
-0.103137
-0.102703
-0.101044
-0.0983258
-0.0951052
-0.0919766
-0.0894004
-0.0875524
-0.0864083
-0.08572
-0.0852257
-0.0847036
-0.0839031
-0.0826292
-0.0808025
-0.0784767
-0.0758528
-0.0731647
-0.0706531
-0.0683536
-0.0663093
-0.0644822
-0.0628341
-0.0615245
-0.0608661
-0.0611212
-0.0624826
-0.0649481
-0.0682913
-0.0721859
-0.0762068
-0.0799379
-0.0830419
-0.0852598
-0.086391
-0.0864424
-0.0856484
-0.0843602
-0.0831297
-0.0825378
-0.0830954
-0.0850669
-0.0883237
-0.0923766
-0.0964547
-0.0998001
-0.101625
-0.101353
-0.0987784
-0.0937841
-0.0865343
-0.0773644
-0.0668143
-0.0556628
-0.0446922
-0.0345971
-0.0257748
-0.0182337
-0.0114901
-0.0049289
0.00198006
0.00943022
0.0173208
0.0251763
0.0325101
0.0389012
0.0442008
0.0485097
0.0520048
0.05478
0.0568768
0.0582547
0.0588181
0.0585027
0.0575086
0.0560232
0.0544105
0.0529622
0.0519367
0.0515549
0.0517689
0.0525072
0.0534593
0.0543708
0.0548675
0.054664
0.0536397
0.0517908
0.0491581
0.045915
0.0423185
0.038634
0.0350873
0.0318193
0.0288377
0.0260778
0.0233278
0.0203651
0.0170843
0.0136419
0.0102109
0.00713125
0.00465166
0.00292511
0.00193047
0.00138766
0.00105789
0.000554751
-0.000328979
-0.00165233
-0.00331405
-0.00503177
-0.00663266
-0.00803307
-0.00927717
-0.0105228
-0.0120104
-0.0137523
-0.0156273
-0.0172926
-0.0184196
-0.0188939
-0.0189229
-0.0190158
-0.0197657
-0.021694
-0.0247737
-0.0285163
-0.0320689
-0.0345033
-0.0351674
-0.0339308
-0.0312461
-0.0279198
-0.0247171
-0.0221045
-0.0199745
-0.0178591
-0.0150561
-0.0111661
-0.00616498
-0.00052642
0.00502955
0.00978864
0.0134257
0.0159511
0.0176438
0.0188031
0.0196527
0.0202847
0.0207816
0.0214512
0.0227241
0.0250634
0.0287191
0.0335222
0.0388216
0.0437694
0.0474711
0.0494168
0.0495508
0.0482822
0.0463706
0.0446712
0.0439081
0.0446696
0.0471865
0.0513232
0.0564432
0.0613419
0.06445
0.0640488
0.0588108
0.0481735
0.032485
0.012994
-0.00846342
-0.0299352
-0.0496912
-0.0665226
-0.0797284
-0.0890673
-0.0948131
-0.0976959
-0.0988493
-0.0996494
-0.101252
-0.104108
-0.107903
-0.111549
-0.113756
-0.113496
-0.110651
-0.105925
-0.100745
-0.0965739
-0.094537
-0.094887
-0.0971776
-0.100497
-0.103837
-0.106561
-0.10864
-0.110812
-0.114479
-0.121393
-0.133349
-0.151714
-0.176963
-0.20802
-0.241616
-0.272038
-0.291243
-0.289233
-0.254907
-0.178268
-0.0532996
0.118457
0.325047
0.54278
0.738744
0.877044
0.928027
0.877278
0.731373
0.517511
0.276451
0.0512137
-0.12457
-0.234255
-0.279796
-0.277246
-0.248746
-0.214706
-0.188216
-0.174027
-0.17059
-0.173505
-0.178384
-0.182654
-0.185846
-0.188706
-0.19205
-0.196087
-0.200247
-0.203354
-0.204236
-0.202159
-0.197282
-0.190467
-0.183006
-0.176163
-0.170798
-0.167124
-0.164814
-0.163297
-0.16194
-0.160227
-0.157903
-0.154834
-0.151117
-0.147083
-0.143263
-0.140247
-0.138668
-0.138772
-0.140498
-0.143337
-0.146478
-0.149055
-0.150244
-0.149525
-0.146622
-0.14171
-0.13535
-0.128543
-0.122411
-0.117986
-0.115789
-0.115701
-0.116903
-0.118184
-0.118416
-0.117055
-0.114287
-0.111055
-0.108607
-0.107972
-0.109399
-0.112415
-0.115822
-0.118407
-0.119243
-0.118094
-0.115548
-0.112462
-0.10973
-0.107739
-0.106343
-0.105063
-0.103397
-0.101315
-0.0994332
-0.0987547
-0.100265
-0.104613
-0.111649
-0.120493
-0.129811
-0.138094
-0.144344
-0.148011
-0.149212
-0.148351
-0.146031
-0.142568
-0.138029
-0.13224
-0.124813
-0.115594
-0.104654
-0.092521
-0.0800006
-0.0680427
-0.0573587
-0.0482055
-0.0404032
-0.0334492
-0.0266877
-0.0196412
-0.0121394
-0.00417859
0.00416562
0.0128223
0.0218481
0.0311619
0.0405267
0.0492565
0.0565241
0.0614608
0.0636814
0.0634686
0.0617243
0.0598302
0.058896
0.0595904
0.0619172
0.0652495
0.0687433
0.0716817
0.0735962
0.0742229
0.0734623
0.0713488
0.068188
0.0646101
0.0615014
0.0598614
0.0602747
0.0625596
0.0657535
0.0683973
0.0691584
0.0672746
0.0627932
0.0564477
0.0492733
0.042248
0.036123
0.0314256
0.0285513
0.0276862
0.0287059
0.0310896
0.0338945
0.036095
0.0368124
0.0356985
0.0329946
0.0294133
0.0256985
0.0224454
0.0198938
0.0179179
0.0161311
0.0141867
0.0117581
0.00875748
0.00533237
0.001922
-0.000988995
-0.00292204
-0.00384008
-0.00404501
-0.00402192
-0.0042249
-0.00486116
-0.0056287
-0.00603288
-0.00562922
-0.00429071
-0.00255652
-0.00125405
-0.00115026
-0.00267705
-0.00560879
-0.00909747
-0.0119199
-0.0129382
-0.0114402
-0.00737196
-0.00138978
0.00556128
0.0123994
0.0184278
0.0234988
0.0278931
0.0319584
0.0361458
0.0405544
0.045065
0.0495569
0.0540197
0.0585524
0.0634153
0.0686654
0.0740769
0.0791972
0.0833226
0.0857612
0.0861665
0.0847305
0.0820935
0.0792184
0.0771395
0.0764918
0.0772873
0.0787459
0.0792996
0.07725
0.0711767
0.0604136
0.0452899
0.0270118
0.00730286
-0.0118235
-0.0286819
-0.0421608
-0.051778
-0.057718
-0.0607028
-0.0615613
-0.0612551
-0.0605666
-0.060042
-0.0598229
-0.059847
-0.0599161
-0.059755
-0.0593552
-0.0588261
-0.0584146
-0.0584882
-0.0593032
-0.0609411
-0.0631908
-0.0655081
-0.0672546
-0.0679783
-0.0674449
-0.0658667
-0.064144
-0.0637102
-0.0665789
-0.0749532
-0.0906765
-0.114674
-0.146149
-0.181601
-0.21449
-0.235356
-0.232582
-0.193748
-0.108219
0.0297049
0.217592
0.441898
0.677283
0.888817
1.03852
1.0948
1.04186
0.885773
0.654478
0.390794
0.140704
-0.0590458
-0.189294
-0.250606
-0.258606
-0.235824
-0.203377
-0.175415
-0.157835
-0.150326
-0.149577
-0.151832
-0.154411
-0.155971
-0.156038
-0.15462
-0.151863
-0.148118
-0.144068
-0.140282
-0.13726
-0.135362
-0.134634
-0.135006
-0.136389
-0.138577
-0.141317
-0.144154
-0.146625
-0.148141
-0.148341
-0.147061
-0.144385
-0.140633
-0.136078
-0.131004
-0.125537
-0.119872
-0.114204
-0.10886
-0.104209
-0.100564
-0.0981536
-0.0970103
-0.0968998
-0.0974787
-0.0983612
-0.0991781
-0.0997184
-0.0998739
-0.0995874
-0.0989949
-0.0982003
-0.0973826
-0.0967208
-0.0962717
-0.0960233
-0.095821
-0.0954568
-0.094683
-0.0935267
-0.0920964
-0.0907406
-0.0898272
-0.0895214
-0.0897528
-0.0902392
-0.0906758
-0.0908723
-0.0909419
-0.0911983
-0.0920659
-0.0938932
-0.0966846
-0.100185
-0.10394
-0.107541
-0.110611
-0.113063
-0.115005
-0.116567
-0.118023
-0.119462
-0.120897
-0.122161
-0.122906
-0.122576
-0.12057
-0.116249
-0.109022
-0.0985881
-0.0849957
-0.0687357
-0.0506203
-0.0318065
-0.0134335
0.00340334
0.0180236
0.0302239
0.0402311
0.0486983
0.0563873
0.0639187
0.0716709
0.0796756
0.0876112
0.0950895
0.101753
0.107368
0.111902
0.115451
0.118188
0.120252
0.121848
0.123046
0.123985
0.124649
0.125031
0.125034
0.124511
0.123308
0.12123
0.118234
0.114413
0.110032
0.105577
0.101519
0.0983128
0.0963579
0.0957508
0.0963164
0.0976923
0.0993399
0.100687
0.101293
0.100912
0.0995256
0.0972606
0.0944408
0.0913215
0.0881525
0.0849674
0.0817724
0.0784931
0.0750079
0.0712265
0.0671494
0.0629177
0.0587948
0.0550572
0.0519455
0.0494299
0.0473456
0.0453349
0.0431345
0.0406576
0.0380013
0.0355943
0.0337693
0.0327735
0.0326403
0.0331229
0.0338445
0.0344742
0.0346459
0.0341183
0.0328013
0.0307684
0.028245
0.0256654
0.023606
0.022709
0.0234349
0.026046
0.0304228
0.0362014
0.0428029
0.0495798
0.0559599
0.0616189
0.0664055
0.0705167
0.0743246
0.0782406
0.0826884
0.087742
0.0930039
0.0978536
0.101467
0.103132
0.102606
0.100111
0.096249
0.0920059
0.0882957
0.0859085
0.085477
0.0872245
0.0910427
0.0962441
0.101561
0.105223
0.105417
0.100798
0.0907653
0.0758685
0.057594
0.0377917
0.0183696
0.000673944
-0.0146832
-0.0276929
-0.0386125
-0.0477819
-0.0553635
-0.0614474
-0.0660867
-0.0692914
-0.071124
-0.0718577
-0.0717269
-0.0710346
-0.0702223
-0.0696385
-0.0695771
-0.0702041
-0.0713888
-0.0727392
-0.0739042
-0.0747013
-0.0750789
-0.0754935
-0.0769632
-0.081057
-0.0897631
-0.105
-0.12818
-0.159207
-0.195612
-0.231933
-0.259691
-0.267803
-0.243828
-0.175953
-0.0559564
0.117132
0.333603
0.571085
0.795936
0.968761
1.05394
1.03
0.897341
0.67978
0.418885
0.162475
-0.0485732
-0.190376
-0.259687
-0.270388
-0.245472
-0.208085
-0.174784
-0.153307
-0.143946
-0.142998
-0.145971
-0.149541
-0.152055
-0.153309
-0.153685
-0.153474
-0.152836
-0.151766
-0.150253
-0.148276
-0.145993
-0.143483
-0.140921
-0.138422
-0.136009
-0.133583
-0.131086
-0.128543
-0.126063
-0.123933
-0.122433
-0.12162
-0.121391
-0.121397
-0.121204
-0.120482
-0.119044
-0.116891
-0.114264
-0.111413
-0.108488
-0.105555
-0.102575
-0.0994499
-0.0961374
-0.0927391
-0.0893042
-0.0859973
-0.082845
-0.079848
-0.0769557
-0.0740695
-0.0711847
-0.0684193
-0.0659486
-0.0639959
-0.0627902
-0.0624517
-0.0630021
-0.0642978
-0.0660648
-0.0679056
-0.0694559
-0.0704563
-0.0708854
-0.0709233
-0.0708705
-0.07103
-0.0715432
-0.0723417
-0.0731699
-0.073639
-0.0735335
-0.0729
-0.0720752
-0.0714922
-0.0715371
-0.0724488
-0.0740679
-0.0759821
-0.0777357
-0.0790103
-0.0795934
-0.0795548
-0.0790066
-0.077877
-0.0758334
-0.0722752
-0.0666236
-0.0584816
-0.0478748
-0.035332
-0.0219066
-0.00874275
0.003164
0.0131361
0.0210864
0.0272769
0.0322487
0.0365959
0.0407694
0.0449248
0.0491204
0.0532748
0.0571401
0.0605596
0.0633195
0.0653205
0.0664384
0.0666372
0.0659949
0.0646785
0.0628826
0.0608546
0.0589419
0.05734
0.0561454
0.0553406
0.0548342
0.0543731
0.0535965
0.0522248
0.0500227
0.0470882
0.043806
0.0408532
0.0389739
0.0387441
0.0400655
0.0422663
0.044214
0.0446812
0.0429159
0.0388555
0.0332491
0.0271726
0.0216389
0.0172487
0.0142446
0.0124845
0.0117736
0.0120308
0.0132426
0.0152244
0.0174911
0.0192446
0.0196199
0.0179373
0.0140893
0.00847001
0.00201282
-0.00425405
-0.00953046
-0.0134574
-0.0161185
-0.0179138
-0.0192573
-0.0205041
-0.0217765
-0.0230398
-0.0242449
-0.0253898
-0.026632
-0.0282833
-0.0307158
-0.0340545
-0.0381701
-0.0424537
-0.0460937
-0.0481333
-0.0478135
-0.0448865
-0.0395627
-0.0325133
-0.0246433
-0.0167345
-0.00948501
-0.00324573
0.00183767
0.00588224
0.00924798
0.012398
0.0158801
0.0201652
0.0253794
0.0312901
0.0372234
0.0423562
0.0459099
0.0474973
0.0471133
0.0450791
0.0421088
0.0390194
0.0367166
0.0360052
0.0375442
0.0414911
0.0472032
0.0531652
0.0571587
0.0570164
0.0513834
0.0402232
0.0250758
0.00826044
-0.00787681
-0.0217996
-0.0332066
-0.0428551
-0.0516963
-0.0604507
-0.0691021
-0.077138
-0.0839458
-0.0893096
-0.0933894
-0.0967106
-0.0997271
-0.102608
-0.105062
-0.106474
-0.106408
-0.104745
-0.101835
-0.0983385
-0.0949361
-0.0922404
-0.0903439
-0.0889849
-0.0878041
-0.0864295
-0.0849729
-0.0838922
-0.0838752
-0.085603
-0.0897751
-0.0969028
-0.107673
-0.122873
-0.143177
-0.168715
-0.198189
-0.227852
-0.251428
-0.260358
-0.244736
-0.19464
-0.102108
0.0366533
0.218625
0.431791
0.654229
0.855717
1.00242
1.06483
1.02615
0.888572
0.674616
0.422008
0.173698
-0.0333802
-0.177195
-0.253862
-0.274845
-0.260164
-0.23049
-0.201046
-0.179515
-0.167232
-0.161803
-0.160001
-0.15944
-0.159124
-0.158894
-0.158873
-0.159072
-0.159369
-0.15965
-0.159904
-0.160043
-0.160038
-0.159614
-0.158471
-0.156492
-0.153755
-0.150615
-0.147557
-0.144989
-0.143196
-0.142279
-0.142076
-0.14238
-0.142991
-0.14358
-0.143639
-0.14276
-0.140567
-0.137027
-0.132515
-0.127671
-0.123275
-0.119837
-0.117454
-0.115917
-0.114754
-0.113564
-0.111928
-0.10971
-0.106831
-0.103319
-0.0994716
-0.0957483
-0.0929314
-0.0917986
-0.092816
-0.095764
-0.0998284
-0.103571
-0.105593
-0.104951
-0.101552
-0.0961436
-0.0901296
-0.0849713
-0.0818123
-0.0811999
-0.0827997
-0.0856784
-0.0887472
-0.0909815
-0.0919694
-0.0919003
-0.0915946
-0.0920942
-0.0942125
-0.0981901
-0.103587
-0.109651
-0.115505
-0.12054
-0.124639
-0.127997
-0.130815
-0.133227
-0.134868
-0.135216
-0.133603
-0.129305
-0.121783
-0.111062
-0.0975967
-0.0822184
-0.0663408
-0.051456
-0.0388131
-0.0291843
-0.0224049
-0.0175995
-0.0133168
-0.0080178
-0.000665641
0.00896164
0.0202472
0.0321102
0.0433726
0.0531877
0.0612846
0.0679106
0.0735074
0.07852
0.0830172
0.0870046
0.0905409
0.0938516
0.097269
0.101343
0.106363
0.112158
0.118127
0.123194
0.126195
0.126346
0.123357
0.117772
0.11068
0.103406
0.0972161
0.0929604
0.0908706
0.090715
0.0918394
0.0933762
0.0945078
0.0946133
0.0932544
0.0904295
0.0865928
0.0824195
0.0787246
0.0761101
0.0747355
0.0742435
0.0739921
0.0732306
0.0715414
0.0688455
0.065539
0.0621782
0.0592198
0.0566973
0.0543267
0.0515649
0.0480143
0.0435666
0.03861
0.0337387
0.0296249
0.026645
0.0247961
0.0236389
0.0227065
0.0214858
0.0197544
0.0176343
0.0154342
0.0134998
0.0120972
0.0113312
0.0111634
0.0114374
0.0120074
0.0128044
0.0137313
0.0146966
0.0156643
0.0165749
0.0173155
0.0179237
0.0185368
0.0193605
0.0207546
0.0230367
0.0264598
0.0311199
0.0368957
0.0434771
0.0502999
0.0568925
0.0627736
0.067728
0.0718043
0.0751478
0.0780348
0.0805642
0.0826798
0.0841653
0.0846835
0.0840043
0.082118
0.0792871
0.0759405
0.0728117
0.0707027
0.0704502
0.0727092
0.0779305
0.0858451
0.0954341
0.104723
0.11122
0.112554
0.107097
0.0946093
0.0762867
0.0544625
0.0318456
0.010792
-0.0071806
-0.0215415
-0.0323965
-0.0401095
-0.0450052
-0.0472195
-0.0469739
-0.0447447
-0.0413479
-0.0377856
-0.0352491
-0.0345795
-0.0361298
-0.0396745
-0.044505
-0.0496136
-0.0541422
-0.0573915
-0.0590164
-0.0590374
-0.0576768
-0.055301
-0.0524231
-0.0495156
-0.0470176
-0.0452017
-0.0440625
-0.043457
-0.0431332
-0.0430593
-0.0437462
-0.0464069
-0.0528889
-0.0651319
-0.0846022
-0.111554
-0.14416
-0.177989
-0.205764
-0.218115
-0.204704
-0.155488
-0.0624439
0.0782278
0.264035
0.484146
0.718224
0.937379
1.10785
1.19766
1.18514
1.06623
0.857725
0.594607
0.321406
0.0804418
-0.0986747
-0.205102
-0.246145
-0.241406
-0.21422
-0.183905
-0.161635
-0.150361
-0.14778
-0.14969
-0.152452
-0.15431
-0.155093
-0.155247
-0.155187
-0.154878
-0.154121
-0.152752
-0.150781
-0.148464
-0.146172
-0.144329
-0.143101
-0.142411
-0.141971
-0.141408
-0.140448
-0.138993
-0.137172
-0.135166
-0.133101
-0.130997
-0.128686
-0.126099
-0.123191
-0.120152
-0.117226
-0.114659
-0.112443
-0.110388
-0.108241
-0.105913
-0.103469
-0.101176
-0.0994429
-0.0984324
-0.0981469
-0.098331
-0.0986625
-0.0989451
-0.0992145
-0.0995851
-0.100272
-0.101383
-0.102766
-0.104217
-0.10545
-0.106194
-0.106421
-0.106156
-0.105611
-0.104973
-0.1045
-0.104285
-0.104349
-0.104555
-0.104568
-0.104098
-0.102921
-0.101051
-0.0987267
-0.0965106
-0.0949016
-0.0944407
-0.0953947
-0.0978193
-0.10143
-0.105865
-0.11065
-0.115282
-0.119415
-0.122698
-0.124939
-0.125899
-0.125284
-0.122694
-0.117638
-0.109686
-0.098606
-0.084646
-0.0684909
-0.051274
-0.0343148
-0.0187636
-0.0053909
0.00561491
0.01469
0.0226102
0.03014
0.0379996
0.046331
0.0550172
0.0636555
0.0717164
0.0788236
0.0847367
0.0894741
0.0931193
0.0960624
0.0986193
0.101143
0.103881
0.106959
0.110235
0.11342
0.116032
0.117653
0.118035
0.117216
0.115571
0.113627
0.11202
0.111156
0.111185
0.111964
0.113001
0.113853
0.114113
0.113497
0.11203
0.109838
0.107171
0.10422
0.101221
0.0981924
0.0951131
0.0919966
0.0889293
0.0859951
0.0833624
0.0809899
0.0788681
0.0767217
0.0743552
0.0716189
0.0685412
0.0653183
0.0621831
0.059343
0.0568893
0.0548091
0.0529696
0.0512409
0.0496433
0.048304
0.0472839
0.0465961
0.0459601
0.0448666
0.0427644
0.0392084
0.0342856
0.0286281
0.0233111
0.0195525
0.0183071
0.0199501
0.0241455
0.0300816
0.0367953
0.0435642
0.0499884
0.0559919
0.061697
0.0672617
0.0726301
0.0775083
0.0816827
0.0848695
0.0869599
0.0880126
0.0881914
0.087556
0.0861047
0.08383
0.0808143
0.0775145
0.0746097
0.0730197
0.0736441
0.0768581
0.0821353
0.0880035
0.0921882
0.0923905
0.0870297
0.0757255
0.0595249
0.0406367
0.0217108
0.00486361
-0.00864735
-0.0187804
-0.0265465
-0.0332486
-0.0399256
-0.0471447
-0.0548316
-0.0624219
-0.0691844
-0.074352
-0.0775848
-0.0789265
-0.0788284
-0.0778992
-0.0768587
-0.0761895
-0.0760575
-0.0764506
-0.0771384
-0.0778649
-0.0785234
-0.0790153
-0.0792235
-0.0788892
-0.0779257
-0.0762165
-0.0739702
-0.0717941
-0.0708441
-0.0727331
-0.0794698
-0.0928371
-0.113875
-0.1422
-0.175218
-0.207534
-0.23105
-0.235799
-0.211219
-0.1477
-0.0381692
0.119913
0.322416
0.556778
0.800913
1.02419
1.19152
1.27052
1.24053
1.10009
0.869933
0.589148
0.305278
0.0616641
-0.113448
-0.212212
-0.245486
-0.235648
-0.207286
-0.179364
-0.161587
-0.155408
-0.157293
-0.16247
-0.167254
-0.169964
-0.170452
-0.169335
-0.167179
-0.164336
-0.161051
-0.15763
-0.154328
-0.151346
-0.148815
-0.146806
-0.1453
-0.144318
-0.143906
-0.144018
-0.144457
-0.144804
-0.144652
-0.143627
-0.141622
-0.13892
-0.136002
-0.133368
-0.131312
-0.129863
-0.128795
-0.127693
-0.126256
-0.124339
-0.122009
-0.119503
-0.117042
-0.114734
-0.112699
-0.110866
-0.109175
-0.107672
-0.10639
-0.105461
-0.105018
-0.105106
-0.105586
-0.106324
-0.107043
-0.107567
-0.107778
-0.107553
-0.106864
-0.105764
-0.104311
-0.102616
-0.100837
-0.0991374
-0.0976628
-0.0964766
-0.0955144
-0.0945899
-0.0934994
-0.0920805
-0.0902438
-0.0882346
-0.0864162
-0.085208
-0.0851085
-0.0863197
-0.0887346
-0.0919912
-0.0956
-0.0991288
-0.102261
-0.104754
-0.10639
-0.106839
-0.105561
-0.101895
-0.0952372
-0.0852924
-0.0720557
-0.0561359
-0.0385051
-0.0203285
-0.00289119
0.0127353
0.0257785
0.0358951
0.0432543
0.0484714
0.0524077
0.0559691
0.0598985
0.0644976
0.0696818
0.0751377
0.0803691
0.0850476
0.0889929
0.0922977
0.0951666
0.097843
0.100401
0.102873
0.105137
0.107076
0.108476
0.109224
0.109204
0.108445
0.106995
0.105006
0.102755
0.100544
0.0986805
0.0975275
0.0973223
0.0980425
0.0994311
0.100959
0.101969
0.101831
0.100165
0.0969519
0.0926548
0.0878378
0.0831615
0.0790146
0.0755957
0.0726982
0.0701214
0.0676444
0.0652164
0.0628634
0.0606608
0.0584961
0.0562985
0.0539231
0.0513421
0.0488676
0.0469692
0.0461002
0.0463897
0.0475541
0.0487518
0.0490094
0.0475131
0.043904
0.0385626
0.0323971
0.0264705
0.0217949
0.0187601
0.0173463
0.0170879
0.0175805
0.0185434
0.0201636
0.0228204
0.0269098
0.0325965
0.0396817
0.0476784
0.0558838
0.0636602
0.0705239
0.0762929
0.0808883
0.0844592
0.0872401
0.0896093
0.0919163
0.0943825
0.0970132
0.0993869
0.100931
0.10103
0.0993209
0.0959875
0.0915774
0.0868853
0.0827993
0.0800177
0.0790721
0.0802294
0.0835648
0.0888328
0.0952155
0.101137
0.10466
0.103725
0.0970418
0.0843418
0.0668254
0.0465139
0.0257506
0.00650476
-0.0100586
-0.0235547
-0.0341931
-0.0422855
-0.0481578
-0.0521891
-0.0547354
-0.0564381
-0.057976
-0.0597873
-0.0621392
-0.0646919
-0.0669897
-0.0684606
-0.0686734
-0.0675217
-0.0652167
-0.062161
-0.0586929
-0.0549439
-0.0509649
-0.046652
-0.0422665
-0.0382311
-0.0353044
-0.0346231
-0.0375478
-0.0455332
-0.0597378
-0.0808999
-0.108892
-0.142006
-0.17656
-0.206254
-0.22248
-0.214852
-0.172331
-0.0853176
0.0518458
0.2374
0.459302
0.694004
0.908203
1.06477
1.13131
1.09006
0.944417
0.719815
0.457834
0.204747
-0.00104147
-0.138169
-0.205257
-0.217095
-0.196587
-0.165966
-0.140503
-0.126499
-0.123183
-0.126221
-0.13098
-0.1345
-0.135694
-0.134881
-0.132956
-0.130674
-0.128486
-0.126667
-0.125197
-0.124059
-0.123005
-0.12177
-0.12012
-0.117974
-0.115318
-0.112216
-0.108839
-0.105253
-0.101525
-0.0976681
-0.093816
-0.0901749
-0.0871208
-0.0850648
-0.0842619
-0.0846623
-0.0859322
-0.0874011
-0.088519
-0.08881
-0.0882486
-0.0870594
-0.085603
-0.0842191
-0.0830716
-0.0820612
-0.0810388
-0.0798774
-0.0785113
-0.0768583
-0.0748716
-0.0725206
-0.0697207
-0.0666547
-0.063539
-0.0607768
-0.0588721
-0.0581876
-0.0588435
-0.0607086
-0.0633386
-0.0661733
-0.0686045
-0.070165
-0.0705814
-0.0699157
-0.0684239
-0.0666124
-0.0651605
-0.0645774
-0.065171
-0.0670068
-0.0696765
-0.0725892
-0.0750533
-0.0765119
-0.0767321
-0.0759266
-0.0746401
-0.0735391
-0.0733471
-0.0744795
-0.0768482
-0.079834
-0.0824035
-0.08331
-0.0814228
-0.0760973
-0.067308
-0.0557719
-0.0426361
-0.029203
-0.0166367
-0.00566035
0.00358021
0.0112369
0.0177165
0.0235107
0.0288678
0.0340512
0.0391965
0.0444129
0.0497699
0.0552886
0.0608352
0.0661297
0.0707884
0.0743846
0.0766791
0.077618
0.0773767
0.0763754
0.0750649
0.0739267
0.0732225
0.0729812
0.0729556
0.0726893
0.0717698
0.0699635
0.0673538
0.0644407
0.0618307
0.0599099
0.0589127
0.0585946
0.0585258
0.0582505
0.0575146
0.0563578
0.0550706
0.0539891
0.0533603
0.0532132
0.0534016
0.0535751
0.053456
0.0527766
0.0513634
0.049061
0.0457377
0.0413712
0.0360287
0.0299546
0.0236278
0.0177503
0.0130734
0.0101867
0.00926574
0.0101193
0.0120145
0.0140965
0.0154812
0.0155337
0.0140407
0.0110624
0.00700058
0.00237058
-0.00235663
-0.00683949
-0.0109827
-0.0147545
-0.0181719
-0.0210895
-0.0232422
-0.0242104
-0.0234979
-0.0208214
-0.0160405
-0.00941909
-0.00146189
0.00717201
0.0157294
0.0235404
0.0299823
0.034675
0.0375454
0.0388939
0.0394648
0.0402456
0.0420917
0.0456258
0.050712
0.056659
0.0623248
0.0665145
0.0684131
0.0678003
0.0652125
0.0617999
0.0590402
0.0582
0.0601329
0.0646437
0.0703053
0.0748799
0.0758621
0.0712666
0.0604623
0.0442552
0.024603
0.00396277
-0.015535
-0.032527
-0.046475
-0.0574451
-0.0656847
-0.0715955
-0.0754902
-0.0778708
-0.0794726
-0.0810541
-0.0833054
-0.0864458
-0.0902738
-0.0942213
-0.0975294
-0.099491
-0.09971
-0.0979918
-0.0944388
-0.0894366
-0.0834873
-0.0771582
-0.0710651
-0.0657785
-0.061696
-0.0592567
-0.0588693
-0.0612593
-0.0674644
-0.0787305
-0.0963421
-0.121112
-0.152777
-0.18897
-0.224591
-0.251446
-0.258387
-0.232309
-0.160654
-0.0352292
0.143296
0.36176
0.593307
0.800432
0.943091
0.989519
0.926381
0.764299
0.535952
0.286937
0.062615
-0.104493
-0.201873
-0.236557
-0.228572
-0.201515
-0.174358
-0.157127
-0.151216
-0.152829
-0.156772
-0.159295
-0.158768
-0.155527
-0.150643
-0.145132
-0.139718
-0.13485
-0.131005
-0.128583
-0.127962
-0.129275
-0.132301
-0.136354
-0.140472
-0.143603
-0.145133
-0.144883
-0.143165
-0.140592
-0.137775
-0.135163
-0.132846
-0.130671
-0.128326
-0.125616
-0.122503
-0.119078
-0.115712
-0.112671
-0.110211
-0.108456
-0.107209
-0.106201
-0.105027
-0.103484
-0.101842
-0.100513
-0.0998305
-0.0997562
-0.0997407
-0.0988777
-0.0962864
-0.0917145
-0.0857619
-0.0798298
-0.0755435
-0.0740344
-0.0754492
-0.0788875
-0.0827808
-0.0856753
-0.0869191
-0.0869495
-0.0868827
-0.0882179
-0.0917961
-0.0974863
-0.104154
-0.109985
-0.113445
-0.113872
-0.111548
-0.107796
-0.104409
-0.10285
-0.103879
-0.107338
-0.112427
-0.118076
-0.123309
-0.127457
-0.130259
-0.131687
-0.131672
-0.130117
-0.12683
-0.12138
-0.113227
-0.101676
-0.0862212
-0.0665751
-0.043245
-0.0175379
0.00835818
0.031873
0.0507225
0.063567
0.0703629
0.072507
0.0723293
0.0722404
0.0740271
0.0782793
0.0843174
0.0906645
0.0955866
0.0978249
0.0970909
0.0940065
0.0897191
0.085544
0.0825049
0.0811059
0.0813464
0.0828245
0.0850153
0.0873424
0.089318
0.0904923
0.0905868
0.0895029
0.0873752
0.0846354
0.081814
0.0793363
0.077441
0.0759097
0.0742312
0.0716426
0.0676093
0.062039
0.0555912
0.0494293
0.0448124
0.0426655
0.0430586
0.0452221
0.0476507
0.0487208
0.0472504
0.0430991
0.0370631
0.030745
0.0258724
0.0236499
0.0242264
0.0267129
0.0294845
0.0308454
0.0298424
0.0265201
0.0218851
0.0173803
0.0141557
0.0126784
0.0126174
0.0130829
0.013195
0.0126083
0.0115126
0.0105569
0.0104585
0.011798
0.0149092
0.0198483
0.0264274
0.0341705
0.0425264
0.0506227
0.0576156
0.0629117
0.0664433
0.0687048
0.0706842
0.073422
0.0775016
0.082807
0.0885024
0.0934111
0.0965401
0.0974681
0.0964642
0.0945352
0.0929392
0.0927547
0.0946043
0.0982125
0.102531
0.105724
0.105689
0.100543
0.0893812
0.0725658
0.0515054
0.0285764
0.00628904
-0.0133585
-0.029215
-0.04107
-0.0493915
-0.0549959
-0.0586963
-0.061186
-0.062989
-0.0645235
-0.0660838
-0.067647
-0.0690201
-0.0698007
-0.0695787
-0.0681124
-0.0654678
-0.0620113
-0.0584009
-0.0552092
-0.0528784
-0.0514195
-0.0505611
-0.0499235
-0.0491932
-0.0483781
-0.0478679
-0.0484641
-0.0513432
-0.0578003
-0.0691467
-0.0862952
-0.109464
-0.137435
-0.166946
-0.191954
-0.203675
-0.191282
-0.142897
-0.0483444
0.0975137
0.291172
0.517603
0.749565
0.950758
1.08296
1.1162
1.03825
0.860038
0.614107
0.346272
0.102751
-0.0822456
-0.194033
-0.237835
-0.232971
-0.203625
-0.170471
-0.14589
-0.133618
-0.131507
-0.135219
-0.140681
-0.145188
-0.147712
-0.148155
-0.146824
-0.144102
-0.140624
-0.137011
-0.133851
-0.131486
-0.129965
-0.12912
-0.128575
-0.12799
-0.12716
-0.126057
-0.124757
-0.123442
-0.122263
-0.121263
-0.120397
-0.119443
-0.118167
-0.11645
-0.114152
-0.111246
-0.10789
-0.104288
-0.100677
-0.0973004
-0.0943223
-0.0917224
-0.0894609
-0.0873081
-0.085068
-0.0826772
-0.0801671
-0.0776913
-0.0755631
-0.0739655
-0.0730098
-0.0726353
-0.0726985
-0.0730009
-0.0735463
-0.0743854
-0.0756419
-0.0774905
-0.0799257
-0.082711
-0.0855023
-0.087977
-0.0898096
-0.090973
-0.0916052
-0.0919073
-0.0920872
-0.092378
-0.0927298
-0.093186
-0.0937636
-0.0945209
-0.0955764
-0.0971201
-0.0992135
-0.101907
-0.105085
-0.108564
-0.112085
-0.115359
-0.118029
-0.119787
-0.120218
-0.118817
-0.115119
-0.108569
-0.0987141
-0.085096
-0.0676638
-0.0466251
-0.0227672
0.00264965
0.02814
0.0521066
0.0732547
0.0907471
0.104316
0.114214
0.120988
0.125453
0.128404
0.130515
0.132231
0.133732
0.134937
0.135556
0.135325
0.134049
0.131751
0.12867
0.125206
0.121762
0.118719
0.116259
0.114503
0.113322
0.112574
0.112
0.111306
0.110322
0.108865
0.106891
0.104486
0.101796
0.0991118
0.0967017
0.09475
0.0933219
0.0923123
0.0914581
0.0904637
0.0889894
0.0867444
0.0835703
0.0795084
0.0746303
0.0692566
0.0637535
0.0585059
0.0538525
0.049961
0.0468485
0.0444172
0.0424831
0.0408845
0.0394583
0.0382548
0.0374322
0.0372805
0.0382239
0.0406747
0.044857
0.0508172
0.0582997
0.0667598
0.0755757
0.0840667
0.091834
0.0986971
0.104709
0.110025
0.114805
0.119013
0.122411
0.124628
0.125174
0.123752
0.120377
0.115369
0.109291
0.102826
0.096728
0.0917203
0.08858
0.0880962
0.0907479
0.0965397
0.104688
0.113433
0.120354
0.12289
0.119205
0.108791
0.0925271
0.0723977
0.0507355
0.0294458
0.00967449
-0.00827105
-0.024437
-0.0388751
-0.0513069
-0.0612881
-0.0683877
-0.0726443
-0.0744757
-0.0747265
-0.074252
-0.0737422
-0.0735189
-0.073791
-0.074438
-0.0753276
-0.0761712
-0.0765985
-0.0761269
-0.074283
-0.0710135
-0.0666857
-0.062194
-0.0590223
-0.0591275
-0.0646253
-0.0773911
-0.0985183
-0.127869
-0.163292
-0.199861
-0.22968
-0.242494
-0.226285
-0.169215
-0.061999
0.0985993
0.306401
0.543211
0.77904
0.975639
1.09475
1.10859
1.00925
0.812947
0.557032
0.289969
0.057554
-0.109304
-0.200979
-0.227685
-0.212018
-0.178992
-0.148001
-0.128722
-0.122064
-0.123952
-0.129261
-0.134254
-0.137452
-0.138971
-0.139754
-0.140591
-0.141724
-0.143035
-0.14438
-0.145539
-0.146281
-0.146538
-0.146296
-0.14553
-0.144272
-0.142458
-0.140045
-0.136977
-0.133256
-0.128977
-0.124359
-0.119779
-0.115498
-0.11175
-0.108601
-0.105936
-0.103597
-0.101442
-0.0994143
-0.0975915
-0.0960032
-0.0946539
-0.0934263
-0.0921668
-0.090782
-0.0892589
-0.0877989
-0.0866604
-0.0859311
-0.0855364
-0.0851529
-0.0843544
-0.0827345
-0.0801312
-0.0766867
-0.0728085
-0.0691126
-0.0661805
-0.064433
-0.063987
-0.0646087
-0.0658702
-0.0672846
-0.0683312
-0.0687962
-0.0687879
-0.0686284
-0.0687007
-0.0693407
-0.0706219
-0.0722633
-0.0739598
-0.0754386
-0.0764996
-0.0773431
-0.0782359
-0.0793523
-0.0807925
-0.082397
-0.0838527
-0.0848449
-0.0852581
-0.0850359
-0.084137
-0.082383
-0.0794068
-0.0746505
-0.0675649
-0.057718
-0.04518
-0.0304483
-0.0144639
0.00163005
0.0166858
0.0299032
0.0409407
0.0497573
0.0567089
0.0623794
0.0671713
0.0714519
0.0753884
0.0789337
0.0819664
0.0843595
0.0859361
0.0866936
0.0867134
0.086208
0.0854335
0.0845927
0.0838901
0.0833621
0.0830049
0.0826607
0.082147
0.0813345
0.0801303
0.0785682
0.0769007
0.0753126
0.0739676
0.072899
0.0719732
0.0707782
0.0690288
0.0665086
0.0633
0.0597036
0.0561447
0.0530325
0.0506062
0.0488038
0.0474455
0.0462397
0.0449003
0.0433191
0.0414677
0.0394245
0.0373012
0.0351883
0.0331422
0.0311408
0.0291588
0.0272081
0.0252664
0.0233891
0.02165
0.0201402
0.0188447
0.0176325
0.0162781
0.0144728
0.0119913
0.00874066
0.00494763
0.000868776
-0.00301997
-0.00623757
-0.00837109
-0.00908026
-0.0081308
-0.00543125
-0.000998484
0.0049768
0.0121659
0.0201073
0.0282696
0.0362143
0.0436922
0.0505805
0.0570101
0.0632728
0.0696303
0.0761809
0.0827374
0.0888764
0.093927
0.0972468
0.0982588
0.0967489
0.0927917
0.087004
0.080261
0.0738816
0.0691969
0.0672922
0.0686682
0.0727545
0.0779415
0.0819769
0.0825209
0.0780457
0.0682991
0.05437
0.0383025
0.0223142
0.00801143
-0.00402685
-0.0141655
-0.0232969
-0.0322405
-0.041191
-0.0497912
-0.0572959
-0.0629925
-0.0666074
-0.0683273
-0.0687516
-0.068593
-0.0684816
-0.0686755
-0.0693111
-0.0703135
-0.0715559
-0.072924
-0.0744037
-0.075946
-0.0774184
-0.0785464
-0.0790877
-0.078953
-0.078219
-0.0772124
-0.0767704
-0.0782037
-0.0832458
-0.0936788
-0.110902
-0.135297
-0.165367
-0.196954
-0.223145
-0.2349
-0.222292
-0.175917
-0.0887298
0.042342
0.2154
0.422214
0.647701
0.870013
1.062
1.19456
1.24226
1.19006
1.03912
0.809102
0.535051
0.259417
0.0217149
-0.151144
-0.250185
-0.283854
-0.272543
-0.240056
-0.206125
-0.182315
-0.171634
-0.171234
-0.175868
-0.180926
-0.183751
-0.183569
-0.180992
-0.177059
-0.172688
-0.168672
-0.165437
-0.163224
-0.161991
-0.161375
-0.160857
-0.159962
-0.158349
-0.155963
-0.153036
-0.150079
-0.147615
-0.146026
-0.145355
-0.145275
-0.145287
-0.144726
-0.143203
-0.140524
-0.13685
-0.132516
-0.127941
-0.123513
-0.119475
-0.116097
-0.113508
-0.111665
-0.110618
-0.110174
-0.110101
-0.110266
-0.110582
-0.111031
-0.11173
-0.112623
-0.113554
-0.114217
-0.114188
-0.113276
-0.111528
-0.109421
-0.107534
-0.106582
-0.106849
-0.108235
-0.110162
-0.111796
-0.112253
-0.110984
-0.107913
-0.103449
-0.0984308
-0.0939905
-0.0910073
-0.0901032
-0.0913113
-0.0941207
-0.0977266
-0.10136
-0.104417
-0.10689
-0.109148
-0.111664
-0.114859
-0.118684
-0.122635
-0.125881
-0.127575
-0.126982
-0.123817
-0.118042
-0.109833
-0.09925
-0.0863694
-0.0713375
-0.054701
-0.0373875
-0.0207956
-0.0061928
0.00542969
0.0139058
0.0197516
0.0239716
0.0276601
0.0316452
0.0362428
0.041305
0.0464253
0.0511079
0.0549184
0.0576803
0.059332
0.059981
0.059864
0.0592712
0.0584702
0.057497
0.0563886
0.0551422
0.053916
0.0531032
0.0531376
0.0543726
0.0568465
0.0601155
0.0634501
0.065959
0.0669336
0.0661359
0.0637449
0.0603379
0.0565389
0.052882
0.0497446
0.0471652
0.0451091
0.0432571
0.0411047
0.0382078
0.034283
0.0293981
0.0241407
0.0194946
0.0164379
0.0156338
0.016988
0.0196258
0.0222557
0.0234916
0.0225536
0.0194676
0.0150515
0.0105339
0.00710868
0.0054237
0.00552546
0.0067221
0.00797729
0.00821962
0.00668374
0.00318005
-0.00207639
-0.00840851
-0.0149468
-0.0208704
-0.0255079
-0.0284703
-0.0297726
-0.0297791
-0.0289472
-0.0277399
-0.0264273
-0.0250062
-0.0233081
-0.0210619
-0.018143
-0.0145347
-0.0104557
-0.00619744
-0.00184664
0.002596
0.00719089
0.0120534
0.0171747
0.0224508
0.0277365
0.0329563
0.0381707
0.0435046
0.0489547
0.0544195
0.0594358
0.0633644
0.0655773
0.0657784
0.0643125
0.062016
0.060087
0.0595755
0.0609118
0.0637357
0.0670755
0.0697714
0.0710742
0.0711356
0.0707667
0.0711494
0.0730207
0.0758939
0.0780571
0.0771318
0.0708354
0.0579762
0.0390559
0.0159914
-0.00824702
-0.0307704
-0.0494129
-0.0632801
-0.0726199
-0.0782556
-0.0813201
-0.0826382
-0.0827201
-0.0818221
-0.080082
-0.0778018
-0.0753676
-0.0732669
-0.0718016
-0.0710592
-0.0709037
-0.0710444
-0.0713997
-0.071862
-0.0726134
-0.0738554
-0.0756356
-0.0778286
-0.0804466
-0.0838688
-0.0890872
-0.0977379
-0.111722
-0.132425
-0.159764
-0.191245
-0.22143
-0.242172
-0.243389
-0.214599
-0.146486
-0.0327308
0.127386
0.327065
0.55024
0.771668
0.959571
1.0811
1.11037
1.03616
0.866971
0.630583
0.367588
0.120853
-0.075437
-0.203487
-0.263788
-0.271308
-0.247931
-0.214537
-0.185452
-0.166911
-0.158582
-0.156849
-0.157711
-0.158461
-0.157884
-0.15608
-0.15328
-0.149756
-0.145588
-0.141046
-0.136693
-0.133289
-0.13152
-0.131719
-0.133622
-0.136394
-0.138884
-0.139984
-0.139088
-0.136059
-0.131451
-0.126092
-0.120943
-0.116847
-0.114342
-0.113641
-0.114586
-0.116699
-0.119372
-0.121834
-0.123509
-0.123954
-0.123139
-0.12123
-0.118771
-0.116232
-0.113982
-0.112127
-0.110621
-0.109272
-0.107871
-0.106338
-0.10469
-0.103186
-0.102002
-0.101317
-0.100951
-0.100569
-0.0996639
-0.09782
-0.0950251
-0.0916575
-0.0884619
-0.0862781
-0.0855861
-0.0864557
-0.0884529
-0.0908823
-0.0930998
-0.0947241
-0.0956329
-0.0959905
-0.0960448
-0.0961581
-0.0967682
-0.0984292
-0.101564
-0.106298
-0.112339
-0.118701
-0.124197
-0.127563
-0.12812
-0.125811
-0.121301
-0.115665
-0.109877
-0.104499
-0.0995205
-0.0944592
-0.088795
-0.0820743
-0.0742851
-0.0658887
-0.0575787
-0.0503063
-0.0446913
-0.0408469
-0.0383182
-0.0361181
-0.0329774
-0.0276366
-0.0193558
-0.00805288
0.00564312
0.0204451
0.0350597
0.0483251
0.0596669
0.0690282
0.0767698
0.0834641
0.0895194
0.0951066
0.0999931
0.103877
0.106518
0.107964
0.108424
0.108299
0.107867
0.107302
0.106533
0.105381
0.103714
0.101486
0.0989032
0.0962042
0.0936924
0.0916161
0.0901373
0.0894608
0.0896327
0.0906194
0.0921625
0.0937965
0.094918
0.0950048
0.0937046
0.0909884
0.087235
0.0830087
0.0788975
0.0752176
0.0720876
0.0693979
0.0669377
0.0646301
0.0625317
0.0607399
0.0593371
0.058348
0.0575174
0.0565426
0.0551844
0.0532448
0.0507508
0.0477973
0.0446916
0.0417103
0.0391506
0.0373226
0.0364464
0.0365309
0.0373631
0.0385765
0.0396626
0.0401298
0.0396062
0.0379512
0.0352635
0.0318715
0.0281871
0.0246192
0.02157
0.0193412
0.0180646
0.017854
0.018798
0.0209915
0.0244135
0.0290373
0.0347247
0.0413005
0.0484743
0.0560062
0.0636138
0.0710373
0.0780632
0.0845825
0.0906494
0.0963989
0.102119
0.108064
0.114302
0.120594
0.126328
0.130616
0.132576
0.131658
0.127925
0.12201
0.1151
0.108431
0.103105
0.0998085
0.0988811
0.100337
0.104017
0.109484
0.115808
0.121466
0.124556
0.123259
0.116457
0.10415
0.087482
0.0683972
0.0489474
0.0306493
0.0143082
0.000120618
-0.011994
-0.0221112
-0.030055
-0.0356346
-0.0389398
-0.040384
-0.0406327
-0.0404089
-0.0402542
-0.0403713
-0.0406459
-0.0407454
-0.0404221
-0.0396065
-0.0384859
-0.0373907
-0.0365628
-0.0361108
-0.0359805
-0.0361577
-0.0367722
-0.0384423
-0.0419724
-0.0481053
-0.0572104
-0.0692379
-0.0837184
-0.1002
-0.118573
-0.138965
-0.161112
-0.182989
-0.199899
-0.203941
-0.184337
-0.128908
-0.0271875
0.12597
0.326465
0.558104
0.792521
0.992652
1.12033
1.14649
1.06043
0.874831
0.623612
0.353238
0.109785
-0.0732113
-0.182039
-0.222628
-0.214751
-0.182699
-0.147126
-0.120399
-0.106295
-0.102831
-0.105749
-0.110979
-0.115952
-0.119571
-0.121525
-0.121902
-0.120813
-0.118429
-0.115141
-0.111391
-0.107645
-0.1043
-0.101524
-0.0993678
-0.0977491
-0.0964515
-0.0952019
-0.0937598
-0.0919277
-0.0897681
-0.0873024
-0.0846718
-0.0819272
-0.0790908
-0.0760736
-0.0727392
-0.0690921
-0.0653062
-0.0615454
-0.0581385
-0.0551809
-0.0525504
-0.0500043
-0.0472158
-0.0440061
-0.0404693
-0.0369244
-0.0338506
-0.0316961
-0.030697
-0.0308451
-0.0318701
-0.0334654
-0.0353761
-0.0374875
-0.0396805
-0.0419028
-0.0439996
-0.0457447
-0.0468911
-0.0472567
-0.0469191
-0.046048
-0.044946
-0.0440341
-0.0434358
-0.0432158
-0.0432937
-0.043549
-0.0439302
-0.044399
-0.0450274
-0.0459456
-0.0472182
-0.0489256
-0.051127
-0.0538514
-0.0571294
-0.0610175
-0.0655687
-0.070674
-0.0762064
-0.0818041
-0.0869237
-0.0909123
-0.0930212
-0.0925378
-0.0889033
-0.0818183
-0.0713889
-0.0579832
-0.042395
-0.0256231
-0.0087086
0.00743417
0.022232
0.0353827
0.0469633
0.0573068
0.0667584
0.0756659
0.0841238
0.091983
0.0988523
0.10425
0.107792
0.109329
0.109087
0.107533
0.105435
0.103402
0.101946
0.101161
0.100911
0.10086
0.100754
0.100398
0.0998244
0.0991903
0.0986361
0.098175
0.0976885
0.0968842
0.0955084
0.0934936
0.0909664
0.0883046
0.0859616
0.0842571
0.0833729
0.0831191
0.0831021
0.0827751
0.0816933
0.0796718
0.0766826
0.0731015
0.0692479
0.0654749
0.0619624
0.0586837
0.055395
0.051915
0.0480939
0.0439654
0.0397609
0.0358155
0.0323468
0.0295808
0.0275546
0.0260987
0.0250758
0.0241831
0.0231877
0.0220604
0.0207385
0.0193544
0.0179635
0.0166288
0.0152423
0.0136228
0.0116491
0.00925048
0.00662939
0.00422192
0.00260307
0.00238069
0.00396553
0.00750187
0.0128503
0.0196331
0.0274043
0.035669
0.0439733
0.0519756
0.0593587
0.0659887
0.0717991
0.0768767
0.0813378
0.0852284
0.0885246
0.0909689
0.092298
0.092252
0.0907957
0.0881511
0.0848574
0.0816372
0.079389
0.0789594
0.0810105
0.085496
0.0917298
0.0980644
0.102335
0.102508
0.0971648
0.086197
0.07078
0.0529036
0.0348061
0.0180979
0.00340648
-0.0095098
-0.0213015
-0.0325441
-0.0433479
-0.0532731
-0.0616224
-0.0678319
-0.0717369
-0.0735828
-0.0739615
-0.0734303
-0.0724998
-0.0714249
-0.0703363
-0.0692868
-0.0684446
-0.0679666
-0.0680076
-0.0686898
-0.0698695
-0.0711874
-0.0721811
-0.072376
-0.07165
-0.0703431
-0.0692792
-0.0698427
-0.0737172
-0.0825538
-0.0975507
-0.119097
-0.146391
-0.177194
-0.207522
-0.231696
-0.242816
-0.233529
-0.196536
-0.125189
-0.0146382
0.136799
0.325387
0.539451
0.758155
0.952364
1.08908
1.13918
1.0863
0.933509
0.704894
0.440248
0.184534
-0.0240371
-0.16348
-0.231356
-0.241717
-0.217438
-0.181421
-0.149958
-0.130384
-0.122591
-0.122465
-0.125305
-0.127832
-0.128886
-0.128726
-0.12808
-0.127581
-0.127357
-0.127384
-0.127486
-0.12748
-0.127252
-0.126743
-0.125897
-0.124907
-0.123967
-0.123306
-0.123168
-0.123507
-0.124038
-0.124374
-0.124002
-0.122633
-0.120258
-0.117162
-0.113794
-0.110649
-0.107929
-0.105631
-0.103503
-0.101151
-0.0982659
-0.094788
-0.0907952
-0.0866434
-0.0828146
-0.0797241
-0.0777641
-0.0770554
-0.0775011
-0.0786808
-0.0801472
-0.0813553
-0.0819232
-0.0816503
-0.0806453
-0.079096
-0.0773951
-0.0758474
-0.0746973
-0.0740325
-0.0737633
-0.0736879
-0.0735175
-0.0729631
-0.071836
-0.0700719
-0.0677923
-0.0651539
-0.0625269
-0.0601761
-0.0582852
-0.0570174
-0.0563889
-0.0564226
-0.0572669
-0.0590873
-0.0620775
-0.066356
-0.0717516
-0.0777992
-0.0838611
-0.0892516
-0.0933206
-0.0956471
-0.0959437
-0.0939858
-0.0896349
-0.0826855
-0.0731289
-0.0611995
-0.0474574
-0.0327681
-0.0181385
-0.00461082
0.00711379
0.0166837
0.0240904
0.0296711
0.0338691
0.0372289
0.0402455
0.0432599
0.0466297
0.0504973
0.0548214
0.0593628
0.0637121
0.0673846
0.0699086
0.071029
0.0708768
0.0698582
0.0686381
0.067859
0.0679991
0.0691357
0.0709871
0.0729687
0.0744391
0.0750644
0.0747659
0.0738933
0.0729717
0.0724286
0.0724446
0.0728342
0.0731853
0.0730068
0.0718657
0.0696336
0.0664471
0.0626156
0.0585826
0.0546987
0.0513061
0.0486417
0.0467449
0.0454297
0.0444439
0.0434485
0.0420841
0.0402764
0.0380633
0.0357512
0.0337063
0.0321506
0.0311802
0.030583
0.0300177
0.029113
0.0277085
0.0256967
0.0231339
0.0201588
0.016792
0.0131273
0.00923125
0.00517693
0.000973948
-0.00326356
-0.00741371
-0.0113279
-0.0147921
-0.0174285
-0.0189478
-0.0191874
-0.0182742
-0.0166806
-0.0150314
-0.0140386
-0.0140669
-0.0150431
-0.0165011
-0.0177225
-0.0179681
-0.0167231
-0.0138783
-0.00960301
-0.00432564
0.00143706
0.00740995
0.0133473
0.0191509
0.0246952
0.0298118
0.0342337
0.0377949
0.0403471
0.0420299
0.043209
0.04442
0.0462854
0.0492855
0.053691
0.059482
0.0663024
0.0733979
0.0797629
0.0843337
0.0861931
0.0848149
0.080441
0.0740106
0.0671629
0.0618532
0.0598206
0.0620096
0.0681181
0.0764296
0.0841945
0.0884028
0.08669
0.0779634
0.0629111
0.0435961
0.022784
0.00309466
-0.0138547
-0.0274624
-0.0381245
-0.0466711
-0.0537858
-0.0598083
-0.0646883
-0.0684067
-0.0709903
-0.0726991
-0.0739951
-0.0752483
-0.0766987
-0.0783737
-0.0801096
-0.0818307
-0.0834513
-0.0849206
-0.0862238
-0.087315
-0.0881211
-0.0884858
-0.0883832
-0.0878734
-0.0873287
-0.0873683
-0.0887979
-0.0923464
-0.0984122
-0.106928
-0.117471
-0.129584
-0.14328
-0.159064
-0.177759
-0.199546
-0.222902
-0.243784
-0.255618
-0.250248
-0.219177
-0.15483
-0.0519745
0.0909097
0.270073
0.475035
0.687554
0.881728
1.02721
1.09527
1.06675
0.939216
0.730095
0.473762
0.213237
-0.0112669
-0.172366
-0.261052
-0.286004
-0.26756
-0.229335
-0.190795
-0.163244
-0.149773
-0.147902
-0.152771
-0.15975
-0.165743
-0.169409
-0.170694
-0.1701
-0.168321
-0.166159
-0.1642
-0.162694
-0.161684
-0.160894
-0.15993
-0.158462
-0.156287
-0.153445
-0.149991
-0.146063
-0.141815
-0.137372
-0.133035
-0.129237
-0.126443
-0.125054
-0.125116
-0.12622
-0.127573
-0.128216
-0.127419
-0.125056
-0.121577
-0.118001
-0.115411
-0.114448
-0.115102
-0.116774
-0.118317
-0.118709
-0.117384
-0.114428
-0.110579
-0.106931
-0.104545
-0.104131
-0.105887
-0.109414
-0.113859
-0.118169
-0.121407
-0.122793
-0.122048
-0.119285
-0.115153
-0.110448
-0.105905
-0.102082
-0.0992464
-0.0974139
-0.096432
-0.0962653
-0.0968558
-0.0981094
-0.0999326
-0.102069
-0.104205
-0.106189
-0.108062
-0.110241
-0.113435
-0.118275
-0.124934
-0.13295
-0.141115
-0.14775
-0.151126
-0.150039
-0.144066
-0.133793
-0.120323
-0.105215
-0.0900251
-0.0760084
-0.0640934
-0.054723
-0.047881
-0.0429412
-0.0389213
-0.0345878
-0.0288681
-0.0211239
-0.0113469
-0.000129885
0.0115338
0.0226421
0.0324748
0.0406089
0.0469583
0.0516693
0.055002
0.0572676
0.0587669
0.0596926
0.0600945
0.0599746
0.0591401
0.0575214
0.055142
0.0522646
0.0494165
0.0471996
0.0460969
0.046193
0.0470864
0.0480298
0.0482422
0.0471973
0.044851
0.0418003
0.0389252
0.0370247
0.0363663
0.036544
0.0366408
0.0356572
0.0330315
0.0288818
0.0240072
0.0194723
0.0163094
0.0148832
0.0148579
0.0153439
0.0152439
0.0136381
0.010043
0.00464973
-0.0019813
-0.00893632
-0.0152463
-0.0201951
-0.0235124
-0.0254425
-0.0264879
-0.0273484
-0.0285542
-0.0303917
-0.032796
-0.0353777
-0.0375781
-0.0387217
-0.0382756
-0.0359728
-0.0319815
-0.0268005
-0.0214403
-0.0170083
-0.0143201
-0.0137018
-0.0149067
-0.0171718
-0.0196361
-0.0218691
-0.0238149
-0.025976
-0.0289414
-0.0329147
-0.0374548
-0.0413595
-0.0431234
-0.04144
-0.0357557
-0.0264507
-0.0147534
-0.00232846
0.00940438
0.0195919
0.028119
0.035458
0.042298
0.0491615
0.0562572
0.0633873
0.070027
0.0754893
0.0791839
0.0806273
0.0796876
0.0766866
0.0723939
0.0679881
0.0648583
0.064152
0.0664535
0.0713166
0.0772434
0.0819458
0.0830568
0.0789157
0.069201
0.0551382
0.0389074
0.0229972
0.00919775
-0.00187447
-0.0106758
-0.0184473
-0.0264015
-0.0352048
-0.0447502
-0.0543678
-0.0631623
-0.0703369
-0.075421
-0.0783417
-0.0793887
-0.0790872
-0.0780442
-0.0767991
-0.0758149
-0.075169
-0.0747842
-0.0743019
-0.0733279
-0.0715476
-0.0688998
-0.0656325
-0.0622177
-0.0597199
-0.0595232
-0.0634732
-0.0735052
-0.0911618
-0.117088
-0.149971
-0.185919
-0.21809
-0.237084
-0.23152
-0.189445
-0.100854
0.0392711
0.22746
0.448952
0.677229
0.876923
1.01084
1.04962
0.980703
0.813644
0.578915
0.320149
0.0821368
-0.101093
-0.21364
-0.258941
-0.254471
-0.223563
-0.187113
-0.158225
-0.141585
-0.135509
-0.135643
-0.1377
-0.139118
-0.139255
-0.13854
-0.137704
-0.13714
-0.136943
-0.137121
-0.137428
-0.137799
-0.138148
-0.138343
-0.138106
-0.137188
-0.135311
-0.132455
-0.128863
-0.125137
-0.121951
-0.119958
-0.119497
-0.120402
-0.122222
-0.124141
-0.125522
-0.125911
-0.125158
-0.123426
-0.121052
-0.118334
-0.115427
-0.112478
-0.109463
-0.106346
-0.103182
-0.100012
-0.0969093
-0.0938781
-0.0909355
-0.0879727
-0.0850121
-0.0821018
-0.079452
-0.0773204
-0.0760013
-0.0755262
-0.0757967
-0.0764099
-0.0769537
-0.0771837
-0.0769185
-0.0763603
-0.0758868
-0.0759344
-0.0767785
-0.0785176
-0.080944
-0.0836378
-0.086196
-0.0881917
-0.0895004
-0.0900443
-0.0899827
-0.0895707
-0.0890518
-0.0886657
-0.0885794
-0.0889084
-0.0896961
-0.0909235
-0.0925565
-0.0946011
-0.096919
-0.099411
-0.101753
-0.103377
-0.103699
-0.101954
-0.0976643
-0.0907159
-0.0814817
-0.0707421
-0.059533
-0.048842
-0.0392947
-0.0311048
-0.0238494
-0.0168132
-0.00923648
-0.000503518
0.00960646
0.0209676
0.0331078
0.0454487
0.0574139
0.0685158
0.0784843
0.0871571
0.0946055
0.100948
0.106381
0.111089
0.115222
0.118773
0.121563
0.123345
0.123789
0.122829
0.120597
0.117546
0.114418
0.111925
0.110498
0.11014
0.110475
0.110793
0.110406
0.108947
0.106437
0.103185
0.0997185
0.0964428
0.0936011
0.0912998
0.0894438
0.0879494
0.0867359
0.0858032
0.0851838
0.0848279
0.0846553
0.0844382
0.0840184
0.0830696
0.0814988
0.0792986
0.0765155
0.0733691
0.0700347
0.0666352
0.0631447
0.0595199
0.0557445
0.0518638
0.0480122
0.0443992
0.0412259
0.0385497
0.0363955
0.034692
0.0334078
0.032501
0.0320705
0.0322058
0.032922
0.0340863
0.0354439
0.0365741
0.0369698
0.0362888
0.0343462
0.0312787
0.0275735
0.0238975
0.0210788
0.019766
0.020349
0.0227217
0.0264056
0.0307054
0.0350171
0.0388843
0.0420867
0.0448837
0.0476278
0.0507023
0.0543865
0.0588076
0.0638914
0.0694838
0.0754124
0.0815574
0.0876994
0.0935774
0.0987677
0.102749
0.104879
0.104702
0.102142
0.097707
0.0924623
0.0878029
0.0850797
0.0852521
0.0885353
0.0940148
0.0997844
0.103548
0.103178
0.0972898
0.085737
0.0695861
0.0506215
0.0310255
0.0127114
-0.00299816
-0.0153484
-0.0243278
-0.0303698
-0.0342059
-0.0368211
-0.0392503
-0.0421956
-0.0459867
-0.0503827
-0.0548374
-0.0586803
-0.0614711
-0.0630524
-0.0635878
-0.0634022
-0.0627735
-0.0617613
-0.0603228
-0.0583108
-0.0556683
-0.0525788
-0.0494993
-0.0470009
-0.0460327
-0.0476169
-0.0531431
-0.0640177
-0.0814094
-0.105877
-0.136689
-0.17106
-0.20362
-0.226667
-0.230359
-0.203689
-0.135879
-0.0190142
0.148689
0.359213
0.592315
0.815995
0.991432
1.08202
1.06425
0.936267
0.720627
0.45892
0.200208
-0.0128935
-0.155229
-0.223352
-0.231892
-0.20528
-0.167793
-0.136429
-0.118523
-0.113474
-0.116797
-0.123532
-0.130324
-0.135666
-0.139426
-0.141926
-0.143375
-0.143823
-0.143428
-0.142397
-0.141049
-0.139697
-0.138472
-0.137406
-0.136486
-0.135574
-0.134531
-0.133246
-0.131533
-0.129342
-0.126634
-0.123583
-0.120413
-0.117465
-0.114921
-0.112946
-0.111417
-0.110084
-0.108619
-0.106868
-0.104801
-0.102613
-0.100646
-0.099194
-0.0983164
-0.097928
-0.0977138
-0.097269
-0.0962355
-0.0943754
-0.0916749
-0.0883854
-0.0847724
-0.0812219
-0.078015
-0.0753162
-0.0732354
-0.0717715
-0.0709709
-0.0708609
-0.0715339
-0.0728574
-0.0746774
-0.0765982
-0.078162
-0.0789591
-0.0788292
-0.0777671
-0.0760032
-0.073956
-0.0720364
-0.0705576
-0.0697389
-0.0696801
-0.0703955
-0.0718655
-0.0739749
-0.0765041
-0.0791088
-0.0813005
-0.0826728
-0.082915
-0.0820395
-0.0803354
-0.0783147
-0.0763555
-0.074429
-0.0721976
-0.068754
-0.0632309
-0.0549482
-0.0438505
-0.0304561
-0.0159314
-0.00156897
0.0115519
0.0227683
0.0320352
0.0396631
0.0462668
0.0523853
0.0583784
0.0643119
0.0700873
0.0754001
0.0799539
0.0835442
0.0860167
0.0874365
0.0879429
0.087815
0.0873615
0.0867336
0.0861298
0.0855073
0.0849444
0.0844259
0.083979
0.0835034
0.0829592
0.0822068
0.0811171
0.0797517
0.0782247
0.076798
0.0756932
0.0749187
0.0743068
0.0735634
0.0723423
0.0704038
0.0676823
0.0642505
0.0603369
0.0561302
0.0518739
0.0477682
0.0439899
0.0406904
0.0378442
0.0353864
0.0330317
0.0305348
0.0277204
0.0246067
0.0213633
0.018282
0.0156582
0.0136285
0.0121714
0.0111644
0.0103491
0.00958188
0.00881868
0.00804137
0.00732214
0.00676235
0.0063038
0.00576164
0.00488388
0.00333089
0.000872801
-0.00248941
-0.00651152
-0.0107974
-0.0148627
-0.0182973
-0.0209075
-0.0226479
-0.0235249
-0.0235732
-0.0227605
-0.0210733
-0.0184992
-0.0151848
-0.0113318
-0.00718453
-0.00283724
0.00176784
0.00675707
0.0123719
0.0187814
0.0258679
0.0333469
0.040663
0.0471307
0.0521297
0.0554019
0.0570958
0.0578267
0.0584787
0.0599056
0.0626284
0.0667155
0.0717409
0.0767926
0.0809548
0.0833585
0.083514
0.0814078
0.0775648
0.0729407
0.0687805
0.0663427
0.0664846
0.0694077
0.0741776
0.0789265
0.0813909
0.0795009
0.0720953
0.0593856
0.0427782
0.0243262
0.00624683
-0.00988416
-0.0233407
-0.0340396
-0.042381
-0.0488021
-0.0536905
-0.0572928
-0.0599852
-0.0621808
-0.0642628
-0.066593
-0.0691776
-0.0718867
-0.0743661
-0.0762244
-0.0771455
-0.0770797
-0.0759825
-0.0738371
-0.0707497
-0.0668882
-0.062559
-0.0586923
-0.0567378
-0.058748
-0.0669933
-0.0832544
-0.108129
-0.140554
-0.177111
-0.211911
-0.237091
-0.243933
-0.223742
-0.168985
-0.0740811
0.0632967
0.240443
0.447998
0.668356
0.87561
1.03829
1.12526
1.11411
0.998962
0.794866
0.535705
0.265964
0.0287672
-0.145365
-0.244966
-0.277619
-0.264044
-0.228985
-0.192907
-0.167419
-0.155344
-0.153738
-0.157542
-0.162577
-0.166415
-0.168448
-0.168909
-0.168064
-0.166099
-0.163131
-0.159415
-0.155524
-0.151897
-0.148952
-0.146832
-0.1454
-0.144314
-0.143304
-0.142086
-0.140594
-0.138945
-0.137345
-0.136092
-0.135395
-0.135303
-0.135679
-0.13625
-0.13671
-0.136783
-0.136241
-0.135018
-0.133205
-0.130925
-0.128456
-0.126004
-0.123752
-0.121748
-0.119807
-0.117701
-0.115127
-0.111932
-0.108173
-0.104155
-0.100309
-0.0971437
-0.0948605
-0.093529
-0.0931345
-0.0934459
-0.0943304
-0.0956281
-0.0973059
-0.099184
-0.101061
-0.102587
-0.103528
-0.103776
-0.103366
-0.102547
-0.101588
-0.100774
-0.100277
-0.100195
-0.100468
-0.101028
-0.101747
-0.102505
-0.103166
-0.103756
-0.104321
-0.105003
-0.10616
-0.107956
-0.110333
-0.113004
-0.115286
-0.116437
-0.115582
-0.112062
-0.105477
-0.0958294
-0.0834628
-0.0690188
-0.0533242
-0.0373291
-0.0219992
-0.00814452
0.00374444
0.0134573
0.0212498
0.0276983
0.0334268
0.038971
0.0444767
0.0497834
0.0544022
0.0578057
0.0596162
0.0597135
0.0583566
0.0559436
0.0529104
0.0497166
0.0466555
0.0438821
0.0414504
0.0393223
0.0373955
0.035561
0.0336408
0.031632
0.0295072
0.0274251
0.0255954
0.0244216
0.0242315
0.0251969
0.0271869
0.02962
0.0315642
0.0320469
0.0301968
0.025733
0.0190389
0.011104
0.00313169
-0.00377597
-0.0089055
-0.0121194
-0.013658
-0.0140685
-0.0139076
-0.0136466
-0.0136551
-0.0142103
-0.0154497
-0.0174651
-0.020044
-0.0227413
-0.0249904
-0.0262465
-0.0262089
-0.0250297
-0.0232331
-0.021577
-0.0208836
-0.0217659
-0.0243612
-0.0284424
-0.0334472
-0.0385272
-0.0430154
-0.0463697
-0.0484247
-0.0492801
-0.0493123
-0.0489017
-0.0484194
-0.048131
-0.0480414
-0.0481843
-0.0484928
-0.0489158
-0.0493206
-0.0495263
-0.0492613
-0.0481507
-0.0458396
-0.0419804
-0.0363832
-0.029163
-0.0205442
-0.0110806
-0.00149342
0.00742533
0.0151775
0.0213634
0.0262101
0.0302546
0.0342066
0.0387045
0.0440321
0.0499682
0.0559676
0.0613217
0.0653204
0.0675322
0.0678575
0.0663602
0.0632951
0.0591277
0.0546406
0.0509469
0.0493102
0.0508008
0.0558063
0.0636552
0.0723722
0.0792696
0.0815154
0.077171
0.0656595
0.0480891
0.0267671
0.00456167
-0.0159093
-0.0329317
-0.0458266
-0.0548539
-0.060754
-0.0643794
-0.0665135
-0.0677836
-0.0687698
-0.0699507
-0.0716775
-0.0740939
-0.0769676
-0.0798455
-0.0820391
-0.0828635
-0.0818186
-0.0787708
-0.073931
-0.0679774
-0.061758
-0.0563181
-0.0524831
-0.0507388
-0.0510945
-0.0531535
-0.0563412
-0.0604424
-0.0660002
-0.0742036
-0.0867314
-0.105124
-0.130017
-0.160386
-0.192902
-0.221682
-0.238515
-0.233164
-0.194436
-0.11211
0.0199167
0.199901
0.414855
0.639434
0.838585
0.974557
1.01694
0.952438
0.790138
0.560501
0.307165
0.0745927
-0.103851
-0.213191
-0.257391
-0.25404
-0.225696
-0.192077
-0.165368
-0.149671
-0.143452
-0.14299
-0.144734
-0.146697
-0.148365
-0.149935
-0.151592
-0.152981
-0.153327
-0.151821
-0.147938
-0.141696
-0.133869
-0.125806
-0.118936
-0.114438
-0.112902
-0.11399
-0.116788
-0.120099
-0.122875
-0.124512
-0.124937
-0.124515
-0.123804
-0.123241
-0.123103
-0.123236
-0.123245
-0.122616
-0.120987
-0.118307
-0.114816
-0.111054
-0.107565
-0.104651
-0.102263
-0.100023
-0.0973471
-0.0937046
-0.088964
-0.0834732
-0.0780175
-0.0736518
-0.0712432
-0.0713963
-0.0741411
-0.078848
-0.0845445
-0.0901363
-0.0948101
-0.0980853
-0.099788
-0.0998884
-0.0983969
-0.0952671
-0.0904375
-0.0842242
-0.0773766
-0.0710639
-0.0666265
-0.0651246
-0.0670116
-0.0720724
-0.079415
-0.0878917
-0.0963991
-0.104013
-0.11001
-0.114025
-0.11597
-0.116071
-0.114856
-0.113078
-0.111474
-0.110414
-0.109571
-0.107963
-0.104239
-0.097128
-0.0858584
-0.0705262
-0.0519763
-0.0314914
-0.0104926
0.00983698
0.0286588
0.045365
0.0595123
0.0708596
0.0793181
0.0850356
0.0885312
0.090526
0.0918626
0.0934539
0.0958411
0.0992864
0.103558
0.108049
0.111954
0.114479
0.115009
0.11329
0.109684
0.104918
0.0998941
0.0956178
0.0927135
0.091294
0.0910158
0.0911634
0.0908945
0.0896746
0.0873414
0.0842092
0.0808359
0.0777532
0.0752317
0.0733404
0.0718275
0.0703504
0.0687105
0.0668182
0.0647607
0.0626961
0.0607676
0.0589526
0.0572291
0.055563
0.053841
0.0520207
0.0501472
0.0481533
0.0459719
0.0435438
0.0408166
0.0377737
0.0345059
0.0311435
0.0279193
0.0249828
0.0223584
0.0200644
0.0179856
0.0158997
0.0137421
0.0114811
0.00917989
0.00705032
0.00537726
0.00452024
0.00480085
0.00641776
0.0093976
0.0135499
0.0184996
0.0236531
0.0282826
0.0318191
0.0337618
0.0339397
0.032426
0.0295616
0.0258255
0.021809
0.0180595
0.0150266
0.0130355
0.0121
0.0121495
0.0129706
0.01435
0.0162608
0.0188905
0.0225615
0.0276457
0.0343067
0.0423263
0.0514413
0.0611383
0.0710035
0.0807929
0.0904612
0.099912
0.108816
0.116687
0.122763
0.126336
0.126927
0.124595
0.120021
0.114351
0.109028
0.105385
0.104532
0.106839
0.111864
0.118137
0.123575
0.125868
0.123144
0.114506
0.100351
0.0822928
0.0623679
0.0428106
0.0252844
0.0106834
-0.000741401
-0.00914719
-0.014757
-0.0178764
-0.0188395
-0.0181921
-0.0165132
-0.0144229
-0.0124848
-0.0111017
-0.01049
-0.0106732
-0.01167
-0.013436
-0.0159963
-0.0191764
-0.0227903
-0.026515
-0.0298882
-0.0323366
-0.0334402
-0.0330347
-0.0313207
-0.0290728
-0.0275612
-0.0285267
-0.0339448
-0.0455293
-0.0643805
-0.0904763
-0.122188
-0.155778
-0.185174
-0.202288
-0.197582
-0.160954
-0.0830936
0.0420631
0.214486
0.424949
0.653405
0.869538
1.03722
1.12258
1.1037
0.978388
0.766979
0.507947
0.247738
0.0279753
-0.125138
-0.205472
-0.224812
-0.205401
-0.170942
-0.139201
-0.11889
-0.110587
-0.110439
-0.113562
-0.116438
-0.117599
-0.117418
-0.116951
-0.117142
-0.118294
-0.120147
-0.122102
-0.123469
-0.123685
-0.122553
-0.120205
-0.117081
-0.11364
-0.110277
-0.107182
-0.104441
-0.102046
-0.0999665
-0.0983187
-0.0971154
-0.0963824
-0.0959886
-0.0957305
-0.0952707
-0.0943811
-0.0929286
-0.0909724
-0.0887269
-0.0864405
-0.0842917
-0.082291
-0.08032
-0.0782126
-0.0758692
-0.0733415
-0.0708417
-0.0688015
-0.0675313
-0.0671258
-0.0674066
-0.0680509
-0.0685264
-0.0684216
-0.0675806
-0.0660994
-0.0642834
-0.0624411
-0.0608232
-0.0593879
-0.0580855
-0.0566959
-0.0551816
-0.0535441
-0.0518623
-0.0501451
-0.0484202
-0.0465801
-0.044604
-0.042558
-0.0406399
-0.0391467
-0.0385698
-0.0391891
-0.0412273
-0.0447613
-0.0495864
-0.0553727
-0.061689
-0.068009
-0.0737934
-0.0785044
-0.0816593
-0.0829051
-0.0819244
-0.0785642
-0.07269
-0.0642579
-0.0533597
-0.0403237
-0.0258912
-0.0111062
0.00287719
0.0149356
0.0244915
0.0316695
0.0373438
0.0427282
0.0490136
0.0568984
0.0663098
0.0766976
0.0870662
0.096661
0.105091
0.112337
0.118603
0.124086
0.128709
0.132134
0.133948
0.133865
0.132112
0.129143
0.125707
0.122437
0.119759
0.117698
0.116138
0.114886
0.113876
0.11314
0.112792
0.112837
0.113106
0.113231
0.112771
0.11131
0.108707
0.105104
0.100934
0.0967334
0.0930854
0.0903878
0.0887122
0.087851
0.0874686
0.0871782
0.0865438
0.0853724
0.0835972
0.0810974
0.0779509
0.0742702
0.0701775
0.0659217
0.0616889
0.0575573
0.0535654
0.049633
0.0457232
0.0418235
0.0380092
0.034428
0.0312916
0.028732
0.0266973
0.0251553
0.023922
0.022891
0.022003
0.0212474
0.0205643
0.0198575
0.0190179
0.0179067
0.0164397
0.0147684
0.0130256
0.0114461
0.010199
0.00919784
0.00819528
0.00688188
0.00486698
0.00206808
-0.00141099
-0.0051876
-0.00861086
-0.0109965
-0.0117763
-0.0106624
-0.00768275
-0.00322461
0.00219634
0.00795618
0.0136268
0.0190742
0.0243726
0.0297296
0.0354407
0.0416887
0.0484476
0.0555285
0.0625685
0.0691284
0.0747894
0.0793314
0.0826741
0.0850972
0.0870717
0.0890594
0.0913931
0.0940925
0.0966881
0.0985379
0.0988333
0.09702
0.0930454
0.0873958
0.0810251
0.0751916
0.071119
0.0698009
0.0716105
0.0761743
0.0821543
0.0875497
0.0901561
0.0880253
0.080309
0.0671863
0.0499165
0.0304286
0.0107814
-0.0075217
-0.0234392
-0.0365071
-0.0465875
-0.0536324
-0.0576924
-0.0591759
-0.0586386
-0.0570119
-0.0552867
-0.0543449
-0.0546369
-0.0562786
-0.0588829
-0.0619361
-0.0647831
-0.0669795
-0.0682457
-0.0685849
-0.06814
-0.0670793
-0.0657596
-0.064459
-0.0634042
-0.0628923
-0.0634818
-0.0659776
-0.0716834
-0.082128
-0.0987317
-0.122189
-0.151609
-0.184001
-0.214379
-0.236103
-0.242275
-0.226947
-0.18615
-0.118241
-0.0236768
0.0955324
0.236083
0.39388
0.563914
0.739781
0.91268
1.07056
1.19756
1.27513
1.28509
1.21457
1.06155
0.838612
0.572547
0.299373
0.0558497
-0.130099
-0.245875
-0.295535
-0.295896
-0.269249
-0.235763
-0.208578
-0.192775
-0.187145
-0.187647
-0.190254
-0.192375
-0.193076
-0.192539
-0.191245
-0.189538
-0.187694
-0.185832
-0.184007
-0.182339
-0.180833
-0.179402
-0.178069
-0.176882
-0.175856
-0.175227
-0.174965
-0.174931
-0.174901
-0.174526
-0.173428
-0.171458
-0.168737
-0.165606
-0.162437
-0.159541
-0.157074
-0.154967
-0.153096
-0.151247
-0.149332
-0.147263
-0.14506
-0.142725
-0.140399
-0.138193
-0.13634
-0.135072
-0.134584
-0.134861
-0.135836
-0.137057
-0.138131
-0.138673
-0.138458
-0.137487
-0.136027
-0.134422
-0.13304
-0.132087
-0.131583
-0.131444
-0.131492
-0.131616
-0.131671
-0.131619
-0.131276
-0.13057
-0.129258
-0.127312
-0.124917
-0.122447
-0.120462
-0.119433
-0.119721
-0.121356
-0.124024
-0.127171
-0.1302
-0.132434
-0.13341
-0.132695
-0.13008
-0.125451
-0.118817
-0.110292
-0.100179
-0.0887259
-0.0762848
-0.0630972
-0.0495477
-0.0360635
-0.023292
-0.0118474
-0.00229901
0.00511399
0.010632
0.0148681
0.0188073
0.0232734
0.0287988
0.0354404
0.0427751
0.050128
0.05693
0.0627398
0.0674788
0.0712675
0.074298
0.0767009
0.078552
0.0797173
0.0801288
0.079758
0.0787047
0.0771135
0.0752048
0.0731103
0.0709624
0.0690057
0.0674238
0.0663538
0.06591
0.0659746
0.0663501
0.0666312
0.0665421
0.065873
0.0647799
0.0635003
0.0623675
0.0615534
0.0610939
0.0606637
0.0599954
0.058747
0.0567149
0.0539475
0.0506292
0.0469313
0.0431468
0.0394126
0.0357981
0.0324136
0.0294144
0.0267545
0.0244298
0.0222237
0.0198173
0.0171191
0.0140791
0.010997
0.00834363
0.00660731
0.00602299
0.00652817
0.00762242
0.00867642
0.00904763
0.00836025
0.00662827
0.00410394
0.00111477
-0.00204941
-0.00529269
-0.00863404
-0.01223
-0.0161534
-0.0203005
-0.0244736
-0.0283706
-0.0316065
-0.0340214
-0.0353968
-0.0357553
-0.0352736
-0.0342042
-0.0328811
-0.0316884
-0.030796
-0.030273
-0.0300869
-0.0301247
-0.0303375
-0.0307686
-0.0314436
-0.032456
-0.0336096
-0.0344963
-0.0345384
-0.0331656
-0.0299102
-0.0247129
-0.0178668
-0.00999327
-0.00172341
0.00637064
0.0140143
0.0211944
0.0280663
0.0349881
0.0422373
0.0499743
0.0582724
0.067113
0.0761762
0.0849747
0.092719
0.0984843
0.101496
0.101269
0.0978936
0.0921818
0.085299
0.0785936
0.0730802
0.0692974
0.0671377
0.0662631
0.0663291
0.0673954
0.0698161
0.0739611
0.0796969
0.0861263
0.0914442
0.0934287
0.0903206
0.0813791
0.0671323
0.0492093
0.0297042
0.0104378
-0.00736084
-0.0231556
-0.0368781
-0.0485231
-0.0579423
-0.0650282
-0.0697103
-0.072255
-0.0732197
-0.0733977
-0.0734697
-0.0739813
-0.0751094
-0.0767971
-0.0787712
-0.0806061
-0.0818312
-0.0819743
-0.0806063
-0.0775958
-0.0733023
-0.0684899
-0.0642557
-0.0618849
-0.0627222
-0.0681072
-0.0791205
-0.0965869
-0.120901
-0.151567
-0.186509
-0.221416
-0.249398
-0.261207
-0.245746
-0.191737
-0.0903745
0.0613077
0.256737
0.477489
0.693869
0.869375
0.968961
0.968992
0.86527
0.675974
0.437639
0.195051
-0.011246
-0.15544
-0.23106
-0.248868
-0.229839
-0.196315
-0.165064
-0.144404
-0.135143
-0.133763
-0.135915
-0.138228
-0.13928
-0.138873
-0.137452
-0.135458
-0.133255
-0.131157
-0.129498
-0.128642
-0.128763
-0.129799
-0.131445
-0.133174
-0.134385
-0.134568
-0.133509
-0.131207
-0.128036
-0.124491
-0.120953
-0.117582
-0.114469
-0.111399
-0.108236
-0.104946
-0.101574
-0.0983868
-0.0956354
-0.0935131
-0.0920252
-0.0911593
-0.0907323
-0.0904649
-0.090227
-0.0898282
-0.0892099
-0.0883788
-0.0873746
-0.0862514
-0.0849954
-0.083471
-0.0814809
-0.0788871
-0.0756885
-0.0720621
-0.0684094
-0.0652834
-0.0630827
-0.0620942
-0.0622473
-0.0632241
-0.0645677
-0.0658517
-0.0668073
-0.0673652
-0.0676723
-0.0678778
-0.0681492
-0.0685974
-0.0692274
-0.069938
-0.0706278
-0.0710975
-0.0712405
-0.07091
-0.0701367
-0.0691356
-0.0681792
-0.0676941
-0.0680839
-0.0695556
-0.0721005
-0.0754061
-0.0788614
-0.08162
-0.0828345
-0.081743
-0.0779246
-0.0713739
-0.0625206
-0.0521857
-0.0413578
-0.0311072
-0.0223072
-0.0155359
-0.0108832
-0.0082096
-0.00692721
-0.00619873
-0.00510037
-0.00292882
0.00080107
0.00610312
0.0125728
0.0195702
0.0265094
0.0328758
0.0385036
0.0434758
0.047971
0.0522349
0.056394
0.0605128
0.0645753
0.0685437
0.0723088
0.0756763
0.0783686
0.080139
0.0808407
0.0804384
0.0790008
0.0767189
0.0737692
0.0702221
0.0661929
0.0619341
0.0577217
0.053988
0.0512091
0.0497611
0.049733
0.0510406
0.0532064
0.055645
0.05777
0.0589644
0.0589755
0.0577118
0.0553372
0.0521493
0.0483974
0.0443069
0.0400073
0.0355714
0.0311369
0.0270009
0.0234994
0.0208736
0.0192963
0.018591
0.0184153
0.018295
0.0177319
0.0163784
0.0140423
0.0106726
0.00640718
0.0014724
-0.00376198
-0.00877737
-0.0130043
-0.0159075
-0.0172245
-0.0170778
-0.0159131
-0.0144103
-0.0131089
-0.0124626
-0.0125855
-0.013362
-0.0145511
-0.0159309
-0.0173954
-0.01878
-0.020126
-0.0213184
-0.0222743
-0.0229979
-0.0235232
-0.0239623
-0.0245288
-0.0253281
-0.0264734
-0.0280503
-0.0299703
-0.0321494
-0.0343982
-0.036387
-0.0377681
-0.0380109
-0.0366021
-0.0331954
-0.0277837
-0.0206387
-0.0125092
-0.00416814
0.00352838
0.00997306
0.0148917
0.0182461
0.0203453
0.0216058
0.0226145
0.0240639
0.0266273
0.0307913
0.0368481
0.0445396
0.0533475
0.0625094
0.071209
0.0788489
0.0850924
0.0898638
0.0932188
0.0951708
0.0956728
0.0947013
0.0924226
0.0892692
0.0860755
0.0836295
0.0825878
0.0829523
0.0838961
0.0838806
0.081114
0.0741148
0.0622858
0.046053
0.0267986
0.00641114
-0.0132406
-0.0305965
-0.0448122
-0.0556118
-0.0630896
-0.067543
-0.0693799
-0.069079
-0.0671535
-0.0641669
-0.0606808
-0.0571609
-0.0540108
-0.0516259
-0.0504558
-0.0509443
-0.0534714
-0.058241
-0.0649573
-0.0728006
-0.0805307
-0.0865811
-0.0896091
-0.089023
-0.0850056
-0.0786528
-0.0717193
-0.0663532
-0.0647533
-0.0687421
-0.079727
-0.0984552
-0.124722
-0.15707
-0.192033
-0.223832
-0.24416
-0.242436
-0.206803
-0.126316
0.00559317
0.187088
0.40452
0.631382
0.831243
0.965467
1.00354
0.933015
0.764726
0.531275
0.277862
0.0494554
-0.121499
-0.222085
-0.25849
-0.250017
-0.219808
-0.186995
-0.162563
-0.149337
-0.145119
-0.14607
-0.149046
-0.152362
-0.15552
-0.158477
-0.160995
-0.162566
-0.162668
-0.161082
-0.157905
-0.153729
-0.149293
-0.14544
-0.142774
-0.141406
-0.140957
-0.140689
-0.139686
-0.137327
-0.133701
-0.129478
-0.125637
-0.123054
-0.121914
-0.121742
-0.121518
-0.120198
-0.117181
-0.112653
-0.107437
-0.102569
-0.0989596
-0.0970323
-0.0966364
-0.0972178
-0.0980765
-0.0986266
-0.0984692
-0.0974928
-0.0957495
-0.0935174
-0.0911848
-0.0890862
-0.0876073
-0.0870129
-0.0873934
-0.0885548
-0.0900978
-0.0914283
-0.0919579
-0.0912346
-0.089171
-0.086177
-0.0829636
-0.0803691
-0.0790122
-0.0791159
-0.080422
-0.0822812
-0.0840981
-0.0855131
-0.0865881
-0.0876958
-0.0893054
-0.0917015
-0.0948204
-0.0982621
-0.101496
-0.104123
-0.106088
-0.1077
-0.10942
-0.111701
-0.11465
-0.11792
-0.120746
-0.121957
-0.120512
-0.115494
-0.10651
-0.0937196
-0.0778668
-0.0601001
-0.0415962
-0.0235559
-0.00685797
0.0080195
0.020997
0.0323668
0.0427207
0.0527333
0.063047
0.0739379
0.0853154
0.0965394
0.106772
0.115135
0.121015
0.124301
0.125378
0.124957
0.123898
0.122719
0.121809
0.121242
0.120889
0.120607
0.12031
0.119953
0.11946
0.118852
0.118091
0.117149
0.116085
0.115021
0.114035
0.113287
0.112806
0.112594
0.112593
0.11269
0.112703
0.11242
0.111574
0.109959
0.107351
0.103816
0.0994037
0.0944362
0.0892482
0.0841554
0.0793924
0.075051
0.0711481
0.067632
0.0645027
0.0617636
0.0595713
0.0581203
0.0575381
0.0577548
0.0584838
0.0592886
0.0596192
0.0590006
0.057093
0.0538805
0.0496116
0.0446935
0.0397498
0.0352802
0.0317543
0.0294034
0.0283765
0.0285131
0.0295499
0.0309953
0.0322285
0.0326626
0.0317816
0.0294212
0.0257272
0.0213855
0.0172293
0.0141199
0.0125548
0.0126316
0.0140081
0.016008
0.0179526
0.01936
0.0199963
0.0198892
0.0192446
0.0183557
0.0174586
0.0168539
0.0168553
0.0176777
0.0195505
0.0225224
0.0265096
0.0313446
0.0368488
0.042813
0.0491973
0.0559837
0.0631671
0.0706228
0.0781478
0.0855477
0.0926705
0.0994399
0.105941
0.112167
0.117969
0.122895
0.126353
0.127784
0.126803
0.123649
0.119073
0.114351
0.110929
0.110014
0.112091
0.11679
0.122711
0.127763
0.129735
0.127024
0.11887
0.105691
0.0888079
0.0699407
0.0507987
0.0326557
0.0163458
0.00236462
-0.00915276
-0.0180535
-0.0244332
-0.0285625
-0.0310331
-0.0326152
-0.0339221
-0.0353852
-0.0369773
-0.038481
-0.0396471
-0.040366
-0.040762
-0.0411443
-0.0417833
-0.0427461
-0.044006
-0.0454224
-0.0466891
-0.0475379
-0.0478017
-0.0473033
-0.0460321
-0.0444596
-0.0438589
-0.0462233
-0.0539432
-0.0692638
-0.0932369
-0.125108
-0.161453
-0.195911
-0.219648
-0.221758
-0.190364
-0.114193
0.0143854
0.195648
0.418734
0.659636
0.882692
1.04684
1.11622
1.07122
0.916118
0.679728
0.408083
0.151118
-0.051382
-0.179417
-0.234796
-0.235935
-0.208219
-0.174394
-0.148733
-0.135756
-0.133158
-0.136143
-0.140396
-0.143647
-0.14544
-0.146279
-0.146639
-0.146457
-0.145443
-0.1433
-0.140044
-0.13595
-0.131589
-0.127455
-0.123926
-0.121175
-0.119172
-0.11783
-0.117002
-0.116554
-0.116341
-0.116237
-0.115929
-0.115206
-0.113813
-0.111785
-0.109365
-0.106928
-0.104885
-0.103431
-0.102442
-0.101556
-0.100242
-0.0983037
-0.0958129
-0.0932132
-0.0911533
-0.0901097
-0.0901216
-0.0908771
-0.091733
-0.0920138
-0.0913623
-0.0897352
-0.0875441
-0.0852431
-0.083333
-0.0819876
-0.0812455
-0.0808923
-0.0808155
-0.0809299
-0.0812312
-0.0817638
-0.0824891
-0.083282
-0.0839557
-0.0843121
-0.0843252
-0.0840654
-0.0837058
-0.0834814
-0.0835206
-0.0837526
-0.0841232
-0.0844106
-0.0845106
-0.0844678
-0.0844268
-0.084629
-0.0851835
-0.0861877
-0.0874139
-0.0884633
-0.0888151
-0.0880319
-0.0856169
-0.0813025
-0.0748369
-0.0659146
-0.0544353
-0.0403413
-0.0239918
-0.00612434
0.0120985
0.0293498
0.0444238
0.0564987
0.0654826
0.0716922
0.0760973
0.0796413
0.083061
0.086733
0.0905476
0.0940991
0.0969092
0.0987691
0.0997896
0.100323
0.100873
0.101925
0.10359
0.105744
0.107962
0.109721
0.110707
0.110617
0.109388
0.107096
0.103886
0.0999634
0.0956144
0.0911519
0.0868163
0.0828649
0.0794091
0.0764495
0.0740484
0.072077
0.0705734
0.0695344
0.0688869
0.0683847
0.0677066
0.0664329
0.0642557
0.0610204
0.0567853
0.0518742
0.0466357
0.0414041
0.0364128
0.0318127
0.0276268
0.0238341
0.02048
0.0175993
0.0152161
0.0133509
0.0119242
0.0108664
0.0100244
0.00923581
0.00828406
0.0071591
0.00578189
0.00415457
0.00237723
0.000626063
-0.000987106
-0.00237838
-0.00356107
-0.00457696
-0.00557261
-0.0067303
-0.0081799
-0.00991881
-0.0120891
-0.0146961
-0.017671
-0.0209353
-0.0242577
-0.0272928
-0.0297666
-0.0314846
-0.0324717
-0.0328956
-0.0330203
-0.0329244
-0.0324463
-0.0311838
-0.0286136
-0.0242352
-0.0179074
-0.00987486
-0.000816587
0.00846187
0.017203
0.0249471
0.0317585
0.0380662
0.0445581
0.051622
0.059349
0.0671917
0.0742128
0.0793558
0.0817768
0.0811484
0.077821
0.0727173
0.067218
0.0627518
0.0606337
0.061689
0.0660046
0.0726748
0.0800488
0.0857624
0.0876234
0.0842052
0.0752482
0.0616488
0.0452221
0.0279377
0.0113877
-0.00349151
-0.0165923
-0.0280748
-0.0380296
-0.0463842
-0.0529193
-0.0574826
-0.0602737
-0.0618017
-0.0627446
-0.063736
-0.0652775
-0.0675477
-0.070509
-0.0739333
-0.077438
-0.0805795
-0.0830488
-0.0844981
-0.0847487
-0.0839164
-0.0822855
-0.0802227
-0.0783012
-0.0770864
-0.0775673
-0.0811591
-0.0894884
-0.104213
-0.126225
-0.154754
-0.186896
-0.217399
-0.239321
-0.245509
-0.230109
-0.189806
-0.123807
-0.0328537
0.0824128
0.221855
0.384896
0.56781
0.760204
0.942463
1.08685
1.16292
1.14665
1.02965
0.824622
0.563837
0.29122
0.0499144
-0.129225
-0.234446
-0.273151
-0.265729
-0.236257
-0.204607
-0.181975
-0.171063
-0.169151
-0.171825
-0.175481
-0.17829
-0.180125
-0.181471
-0.182646
-0.183745
-0.184634
-0.185104
-0.185139
-0.184724
-0.183884
-0.182592
-0.180742
-0.178239
-0.175121
-0.171434
-0.167365
-0.16312
-0.158902
-0.154752
-0.150794
-0.147039
-0.143691
-0.140946
-0.138983
-0.137764
-0.137022
-0.136418
-0.135534
-0.134103
-0.13227
-0.130218
-0.128241
-0.126438
-0.124788
-0.123153
-0.121312
-0.11924
-0.117084
-0.115012
-0.113208
-0.111643
-0.11016
-0.1086
-0.106781
-0.104705
-0.102475
-0.10025
-0.098201
-0.0965181
-0.0953257
-0.094794
-0.0950812
-0.0961846
-0.0979685
-0.100164
-0.102455
-0.104611
-0.106501
-0.108269
-0.109939
-0.111475
-0.112818
-0.113625
-0.113746
-0.113072
-0.111679
-0.109773
-0.107566
-0.10514
-0.10242
-0.0991577
-0.0949967
-0.0895011
-0.0822577
-0.072787
-0.0608217
-0.0463014
-0.0293472
-0.0104259
0.00946308
0.0291242
0.0471946
0.0623422
0.0736956
0.0810605
0.0848279
0.08604
0.0859882
0.0857298
0.0860463
0.0870304
0.0883302
0.0894431
0.0898282
0.0892811
0.0879325
0.0861299
0.0844411
0.083265
0.0829009
0.0832998
0.084224
0.0853295
0.0861296
0.0861095
0.0848887
0.0821952
0.0779601
0.0724053
0.0659647
0.0592642
0.0528643
0.0472109
0.0425821
0.0388894
0.0359077
0.0332579
0.0306613
0.0278107
0.0247042
0.021497
0.0184057
0.0157946
0.0138442
0.0125962
0.011874
0.0113227
0.0104846
0.0090063
0.00671045
0.00370546
0.000374463
-0.00280842
-0.00537021
-0.00695613
-0.0074965
-0.00726456
-0.00662284
-0.00612832
-0.00640195
-0.00776644
-0.0103855
-0.0139511
-0.017889
-0.0213645
-0.0236491
-0.0243808
-0.0236417
-0.0220832
-0.0205426
-0.0197924
-0.0202321
-0.0216669
-0.023399
-0.0245567
-0.0243582
-0.022514
-0.0192693
-0.0154426
-0.0120687
-0.0102215
-0.010598
-0.0131932
-0.0174156
-0.022032
-0.0255572
-0.0266144
-0.0242002
-0.0180545
-0.0086562
0.00284202
0.0149501
0.0262224
0.0355451
0.042461
0.0472013
0.0505475
0.0535682
0.0572199
0.0620826
0.0681755
0.074927
0.0813829
0.0865442
0.0896718
0.0903072
0.0885123
0.0847966
0.079971
0.0750562
0.0711033
0.0691149
0.0696413
0.0725246
0.0767099
0.0803769
0.0813887
0.078009
0.0694024
0.0558761
0.038828
0.0201386
0.00168955
-0.0149952
-0.0290204
-0.0400094
-0.0479514
-0.0531848
-0.0561351
-0.0574388
-0.0578346
-0.0579258
-0.058039
-0.0582003
-0.0583611
-0.0584596
-0.0586936
-0.059436
-0.061076
-0.0638004
-0.0674201
-0.0712856
-0.0745088
-0.07623
-0.0760697
-0.0741083
-0.0711336
-0.068352
-0.0671022
-0.068525
-0.0732536
-0.0815318
-0.0932592
-0.108166
-0.126206
-0.147454
-0.171774
-0.197724
-0.221706
-0.237465
-0.235741
-0.205107
-0.133869
-0.0134229
0.157774
0.370381
0.602336
0.820291
0.98563
1.06362
1.03391
0.897719
0.679253
0.419722
0.16609
-0.0421077
-0.182167
-0.251462
-0.263897
-0.242028
-0.208185
-0.178243
-0.159339
-0.151573
-0.15141
-0.154605
-0.158215
-0.16091
-0.162455
-0.162933
-0.162288
-0.160231
-0.156555
-0.151271
-0.144829
-0.137969
-0.131602
-0.126605
-0.123485
-0.12235
-0.122986
-0.124786
-0.127177
-0.129606
-0.131677
-0.133109
-0.133721
-0.13342
-0.132195
-0.130205
-0.127731
-0.125152
-0.1228
-0.120918
-0.1195
-0.118431
-0.117471
-0.116415
-0.115107
-0.11339
-0.111204
-0.108547
-0.105594
-0.102612
-0.100013
-0.0980912
-0.0970083
-0.0966367
-0.0965754
-0.0963592
-0.0956397
-0.0943276
-0.0925646
-0.0907321
-0.0891954
-0.0882656
-0.0880655
-0.0885858
-0.0897015
-0.0911614
-0.0927129
-0.0940094
-0.094833
-0.0949204
-0.0943299
-0.0932734
-0.0920692
-0.0911598
-0.0908761
-0.0913001
-0.0923529
-0.0938214
-0.09542
-0.0969897
-0.0986261
-0.100451
-0.10254
-0.1047
-0.10639
-0.10666
-0.104583
-0.099303
-0.090475
-0.0783682
-0.0637634
-0.0477953
-0.0315628
-0.0158878
-0.00120514
0.0121809
0.024295
0.0351018
0.0444242
0.0522638
0.0587003
0.0639327
0.0683927
0.0725991
0.0769713
0.0817402
0.086962
0.0924592
0.0977377
0.102361
0.105876
0.107919
0.108308
0.107018
0.104145
0.0999394
0.0946784
0.0888625
0.0830806
0.0779339
0.0740218
0.0717338
0.0710894
0.0716638
0.0727682
0.073539
0.0732324
0.0714341
0.0681223
0.0637786
0.0591534
0.0550468
0.052061
0.0502539
0.0493678
0.0487071
0.0474953
0.0451721
0.0417164
0.0375494
0.0334706
0.0302342
0.0282394
0.0272487
0.0264736
0.0248798
0.0216776
0.0167363
0.010593
0.0042889
-0.000985328
-0.00455156
-0.00626737
-0.00665798
-0.00649314
-0.00655303
-0.00729263
-0.0088804
-0.0112822
-0.0143495
-0.0179346
-0.0218062
-0.0256393
-0.0289804
-0.0313344
-0.0323042
-0.0317019
-0.0297069
-0.0267351
-0.02345
-0.0204972
-0.0183287
-0.0172151
-0.017122
-0.0178657
-0.0192225
-0.0209666
-0.0228771
-0.0249035
-0.0268997
-0.028756
-0.0302167
-0.0311034
-0.0312191
-0.0305738
-0.0293502
-0.0279135
-0.0268046
-0.0264588
-0.0271304
-0.0287672
-0.0310208
-0.0334226
-0.0353496
-0.0363733
-0.0361457
-0.0346084
-0.0318184
-0.0279785
-0.0234477
-0.018609
-0.0137189
-0.00899733
-0.00456875
-0.000360035
0.00369
0.00766796
0.0115916
0.0155776
0.0197317
0.024413
0.0300699
0.0372078
0.0462272
0.0571801
0.0694363
0.0817979
0.0926538
0.100419
0.103972
0.103097
0.0984715
0.0916255
0.0842603
0.0779934
0.0738532
0.0722676
0.0730847
0.0757882
0.0794702
0.0829505
0.0848522
0.0837866
0.0785151
0.0683413
0.0532761
0.0342101
0.0128385
-0.00863307
-0.0279597
-0.0434082
-0.0539809
-0.0596557
-0.0612648
-0.0600799
-0.0575146
-0.0547269
-0.0523764
-0.050841
-0.0501755
-0.0503505
-0.0511748
-0.0523716
-0.0535508
-0.0543823
-0.0546254
-0.0544978
-0.0545366
-0.0552424
-0.056995
-0.0597777
-0.0631222
-0.0665155
-0.0698373
-0.073804
-0.0798959
-0.0901038
-0.106191
-0.129104
-0.158219
-0.190901
-0.222383
-0.245823
-0.252778
-0.233376
-0.17736
-0.0760062
0.0747976
0.271094
0.497847
0.728192
0.926501
1.05582
1.08767
1.01105
0.837438
0.598827
0.339184
0.102259
-0.0797509
-0.19297
-0.241881
-0.24374
-0.220396
-0.190735
-0.166445
-0.151756
-0.145604
-0.144806
-0.146106
-0.147405
-0.147851
-0.14733
-0.145974
-0.143939
-0.141417
-0.138706
-0.136027
-0.133627
-0.131607
-0.129949
-0.128472
-0.126899
-0.124902
-0.122259
-0.118983
-0.115266
-0.111639
-0.108741
-0.10709
-0.106958
-0.108235
-0.11047
-0.113077
-0.115295
-0.11657
-0.116568
-0.115212
-0.11277
-0.109667
-0.106402
-0.103348
-0.100671
-0.0982738
-0.0958572
-0.0931626
-0.0900503
-0.0867022
-0.0834696
-0.080755
-0.0787626
-0.0775243
-0.076867
-0.0766236
-0.0766904
-0.0770852
-0.0778072
-0.078825
-0.0799496
-0.080816
-0.0811042
-0.080629
-0.079391
-0.0776482
-0.0758026
-0.0742395
-0.0732719
-0.0731072
-0.0736864
-0.074925
-0.0765904
-0.0784928
-0.0805182
-0.0825477
-0.0845824
-0.0866529
-0.0888276
-0.0911522
-0.0937162
-0.0965162
-0.0995208
-0.102564
-0.105274
-0.107087
-0.107254
-0.104976
-0.0995699
-0.0905448
-0.0778898
-0.0620558
-0.0438491
-0.0244133
-0.0048639
0.0138415
0.0310063
0.0463803
0.059927
0.0719278
0.0826963
0.0925993
0.101876
0.110634
0.118858
0.126448
0.133151
0.138686
0.142877
0.145664
0.147136
0.147527
0.147117
0.146114
0.144654
0.142775
0.14053
0.138037
0.135457
0.13311
0.131176
0.129725
0.128717
0.127942
0.127232
0.126479
0.12568
0.124864
0.12405
0.123264
0.122488
0.121664
0.120723
0.119619
0.118246
0.116554
0.114533
0.112187
0.109653
0.107048
0.10445
0.101815
0.0989357
0.0955346
0.091463
0.0866232
0.0812412
0.0757242
0.0705576
0.0661071
0.062572
0.0597741
0.0574272
0.0551342
0.0526483
0.049808
0.0466461
0.0432893
0.0399511
0.0368829
0.034412
0.0327861
0.0322476
0.0328566
0.0344105
0.0365633
0.0387509
0.0404564
0.0412731
0.0410139
0.0396708
0.0374765
0.0347159
0.0317066
0.0287219
0.0259551
0.0234422
0.0212249
0.0191519
0.0171625
0.0151194
0.0129625
0.0105964
0.00797006
0.00521424
0.00244143
-3.41277e-5
-0.00190716
-0.00300169
-0.003227
-0.00274544
-0.00188186
-0.000936973
-0.000101691
0.000687668
0.00176625
0.00357266
0.0065039
0.0107381
0.016217
0.0225581
0.0293425
0.0362121
0.0427931
0.049001
0.0548128
0.0603447
0.0656888
0.0710144
0.0765038
0.0821952
0.0881307
0.0940477
0.0996478
0.104491
0.108088
0.11011
0.110363
0.109068
0.106859
0.104723
0.103833
0.105291
0.109662
0.116609
0.124567
0.131314
0.134281
0.131432
0.121994
0.106629
0.0870959
0.0656662
0.0444954
0.0250998
0.00833428
-0.00547741
-0.0161324
-0.0234062
-0.0272535
-0.0279015
-0.0261288
-0.0232536
-0.0206029
-0.0193047
-0.0198374
-0.022041
-0.025218
-0.0284825
-0.0311662
-0.0330218
-0.0340397
-0.0346449
-0.0352655
-0.0362323
-0.0376409
-0.0393523
-0.0410263
-0.0422967
-0.0429214
-0.0429484
-0.0428293
-0.0435124
-0.0465378
-0.0538025
-0.0670966
-0.0877004
-0.115555
-0.14863
-0.182415
-0.209802
-0.222055
-0.209937
-0.165001
-0.0807711
0.0463684
0.215938
0.422
0.651583
0.883648
1.08967
1.23712
1.29626
1.24868
1.09462
0.855688
0.570989
0.287232
0.0464728
-0.124495
-0.219053
-0.248874
-0.236727
-0.207111
-0.17863
-0.160686
-0.154553
-0.156615
-0.161983
-0.167046
-0.170078
-0.171041
-0.170552
-0.16926
-0.167603
-0.165807
-0.164048
-0.162395
-0.16081
-0.159194
-0.157411
-0.155472
-0.153532
-0.15184
-0.150611
-0.14977
-0.149054
-0.148034
-0.14625
-0.143495
-0.139861
-0.135807
-0.131853
-0.128492
-0.126
-0.124283
-0.123114
-0.122018
-0.120579
-0.118561
-0.115912
-0.112926
-0.109924
-0.107277
-0.105108
-0.10333
-0.10172
-0.1001
-0.0985328
-0.0973586
-0.0970334
-0.0979184
-0.099923
-0.102592
-0.105179
-0.106874
-0.107264
-0.106355
-0.104527
-0.102381
-0.100447
-0.0990321
-0.0981538
-0.0976699
-0.0973987
-0.0972209
-0.0971235
-0.0970411
-0.0969382
-0.0966139
-0.0958443
-0.0943292
-0.0919972
-0.0888448
-0.0851958
-0.0816094
-0.0787681
-0.0773536
-0.0779347
-0.0805967
-0.0849293
-0.0900249
-0.0946414
-0.0973466
-0.0970327
-0.0929756
-0.0850992
-0.0739804
-0.0605791
-0.046148
-0.0319371
-0.0189823
-0.00790153
0.00117263
0.00862445
0.0151392
0.0215906
0.0286544
0.0367439
0.0457391
0.0552293
0.0646045
0.0733161
0.0810351
0.0877918
0.0938299
0.0993734
0.104506
0.109183
0.113083
0.115955
0.117511
0.11774
0.116828
0.115023
0.112589
0.109783
0.106812
0.103818
0.10103
0.0986798
0.0970326
0.0961971
0.0960859
0.0963653
0.0965239
0.095926
0.0941383
0.0909575
0.0865423
0.0813774
0.0760344
0.0711263
0.0671084
0.0641681
0.0622277
0.0609348
0.0598945
0.0586835
0.0569874
0.0546516
0.051664
0.0481073
0.0441206
0.0399008
0.0356216
0.0314979
0.027711
0.0243664
0.0213611
0.0185587
0.0156418
0.0124201
0.00883166
0.00506379
0.0014626
-0.0016403
-0.00396767
-0.00549061
-0.00642635
-0.00709388
-0.00795526
-0.00930858
-0.0112885
-0.0137935
-0.0165631
-0.0192392
-0.0215012
-0.0231843
-0.0242642
-0.0248687
-0.0251911
-0.0254131
-0.0256456
-0.0259603
-0.0261909
-0.0262538
-0.0260178
-0.0254232
-0.0244561
-0.0232427
-0.0219418
-0.0206711
-0.0196029
-0.0187413
-0.0180352
-0.0174875
-0.0169296
-0.0163422
-0.0156611
-0.0148525
-0.0138327
-0.012458
-0.0105225
-0.0077154
-0.00383106
0.00123599
0.00741153
0.0143471
0.0215058
0.0283394
0.0343855
0.0394692
0.0438415
0.0480516
0.0527608
0.0584286
0.0651003
0.0722999
0.0791679
0.0846793
0.0881159
0.0893115
0.0886878
0.0872365
0.0861513
0.0865673
0.0892099
0.0941645
0.100689
0.107163
0.111504
0.111582
0.105987
0.0943381
0.0775179
0.0574032
0.036163
0.0158473
-0.00209188
-0.0168921
-0.0283222
-0.0363961
-0.041331
-0.0435865
-0.0439366
-0.0433423
-0.0429048
-0.0433646
-0.0449885
-0.0474573
-0.0500747
-0.0520561
-0.0529136
-0.0526273
-0.0515783
-0.0502674
-0.049079
-0.0480525
-0.0471339
-0.0460772
-0.0450167
-0.0448649
-0.0472779
-0.0545764
-0.0689989
-0.0918764
-0.122862
-0.158985
-0.194275
-0.220134
-0.226361
-0.202808
-0.140988
-0.0359302
0.112682
0.299888
0.51573
0.745994
0.973439
1.17887
1.34247
1.44538
1.47209
1.41365
1.27052
1.05449
0.788255
0.50227
0.229327
-0.00196455
-0.17293
-0.277785
-0.322888
-0.323252
-0.297433
-0.262559
-0.230959
-0.208928
-0.197556
-0.194625
-0.196619
-0.20039
-0.203911
-0.206297
-0.207516
-0.207911
-0.207826
-0.207489
-0.207032
-0.206588
-0.206122
-0.205594
-0.204826
-0.203513
-0.201347
-0.198171
-0.194082
-0.189402
-0.184679
-0.180458
-0.177142
-0.174884
-0.173504
-0.172764
-0.172354
-0.172072
-0.171896
-0.171893
-0.172116
-0.1726
-0.173179
-0.173609
-0.173669
-0.173155
-0.171931
-0.170016
-0.16757
-0.164777
-0.161969
-0.159381
-0.157135
-0.155259
-0.153626
-0.152086
-0.150518
-0.148953
-0.147517
-0.146458
-0.14607
-0.146512
-0.14786
-0.149943
-0.15234
-0.154622
-0.156212
-0.15672
-0.155999
-0.15426
-0.151934
-0.149674
-0.148058
-0.14744
-0.147864
-0.149145
-0.150795
-0.152317
-0.153359
-0.153614
-0.153029
-0.151583
-0.149162
-0.145646
-0.140793
-0.134333
-0.126125
-0.116216
-0.104772
-0.092052
-0.0785411
-0.0645485
-0.0505254
-0.0367814
-0.0236784
-0.0115123
-0.00061019
0.00893858
0.0171234
0.0240895
0.0301418
0.035629
0.040876
0.0462508
0.0519964
0.0582064
0.0649724
0.0722379
0.079762
0.0871876
0.0940006
0.0997487
0.104181
0.107329
0.109441
0.110768
0.111533
0.111637
0.110841
0.10891
0.105753
0.101642
0.0971236
0.0928135
0.0892002
0.0864817
0.0845537
0.0832262
0.0822513
0.0813872
0.080518
0.079544
0.0783085
0.0766812
0.0744838
0.0716962
0.0684749
0.0651809
0.0621056
0.0595925
0.0577426
0.0565289
0.0556637
0.054799
0.0535451
0.0514963
0.048443
0.0443189
0.0393016
0.0338157
0.0283711
0.0234897
0.0195693
0.0166878
0.0147128
0.0133586
0.01219
0.010826
0.00902731
0.0065581
0.00340875
-0.00028589
-0.00420476
-0.00801866
-0.0113165
-0.0138846
-0.0156768
-0.016887
-0.0177789
-0.0186038
-0.0195821
-0.0207455
-0.022021
-0.0233308
-0.0244995
-0.0254664
-0.026144
-0.0265125
-0.0266764
-0.0267162
-0.0267798
-0.0270825
-0.0276996
-0.0286403
-0.0298304
-0.031041
-0.0321424
-0.0330818
-0.0338486
-0.0345406
-0.035164
-0.0357428
-0.0361893
-0.0364035
-0.036288
-0.0358079
-0.0349105
-0.0335719
-0.0317989
-0.0296092
-0.0271739
-0.0246829
-0.0223831
-0.0204763
-0.018883
-0.0173399
-0.0154965
-0.0128843
-0.00927128
-0.00462408
0.000836889
0.00673673
0.0127049
0.0186018
0.0244069
0.0303219
0.0365286
0.0431537
0.0500934
0.0570226
0.0635125
0.0691985
0.0738613
0.0776088
0.0807004
0.0834748
0.0861508
0.0886104
0.0904492
0.0912233
0.0904905
0.0881505
0.0847154
0.0811505
0.0787421
0.0786551
0.081562
0.0872471
0.0945582
0.101502
0.105727
0.105189
0.0986429
0.0860001
0.0682689
0.0473691
0.0254228
0.00438188
-0.0142847
-0.0297306
-0.0416932
-0.0503409
-0.0561205
-0.0596624
-0.0617207
-0.0630756
-0.064329
-0.0657085
-0.0670944
-0.0681075
-0.0682766
-0.0673567
-0.0654123
-0.0629167
-0.0606875
-0.0594382
-0.0595219
-0.0608128
-0.062642
-0.0641161
-0.0643954
-0.0632451
-0.0610039
-0.05876
-0.0579673
-0.0600585
-0.0659384
-0.0755569
-0.0882293
-0.1029
-0.118659
-0.135356
-0.153637
-0.174489
-0.198265
-0.223327
-0.245285
-0.256885
-0.248982
-0.211767
-0.13627
-0.0168503
0.146656
0.346916
0.567351
0.782414
0.960354
1.06927
1.0851
0.999296
0.823109
0.58617
0.32935
0.093846
-0.0891547
-0.205188
-0.257417
-0.261913
-0.240145
-0.211445
-0.188252
-0.175153
-0.170827
-0.171228
-0.172179
-0.171084
-0.167414
-0.162058
-0.156384
-0.151762
-0.148907
-0.147782
-0.147675
-0.1474
-0.145916
-0.142621
-0.137832
-0.132579
-0.128296
-0.126262
-0.127045
-0.130239
-0.134636
-0.138698
-0.140934
-0.140532
-0.13744
-0.132381
-0.126468
-0.120895
-0.116597
-0.114042
-0.113268
-0.11391
-0.115419
-0.11708
-0.118235
-0.118438
-0.11743
-0.115409
-0.112783
-0.110183
-0.108048
-0.106664
-0.105886
-0.105362
-0.104696
-0.103781
-0.10277
-0.102069
-0.102117
-0.103113
-0.104822
-0.106697
-0.108149
-0.108674
-0.108038
-0.106297
-0.103765
-0.10079
-0.097642
-0.09447
-0.0914075
-0.088564
-0.086271
-0.0849286
-0.0849891
-0.0868174
-0.090442
-0.0955553
-0.101526
-0.107549
-0.112823
-0.11692
-0.119803
-0.121827
-0.123475
-0.124909
-0.125898
-0.125697
-0.123328
-0.117903
-0.10915
-0.0976003
-0.0844711
-0.07138
-0.0598457
-0.0507795
-0.0442154
-0.0394298
-0.0351184
-0.0299648
-0.0230782
-0.0141898
-0.00399348
0.00639767
0.0157745
0.0233503
0.0290976
0.0338
0.0386698
0.0449643
0.053453
0.0640034
0.0756513
0.0869682
0.0965871
0.103521
0.107598
0.10927
0.109398
0.108839
0.108185
0.107532
0.106675
0.105357
0.103332
0.100667
0.0975685
0.0942988
0.0911426
0.0882352
0.0856621
0.0835009
0.081828
0.0807278
0.0803645
0.0806466
0.0812886
0.0817052
0.0812572
0.079376
0.0757313
0.0705136
0.0642444
0.0577984
0.0520318
0.0475642
0.0446891
0.0434869
0.0437438
0.0450132
0.0467577
0.0482207
0.0485877
0.0470878
0.0433096
0.0373361
0.0298778
0.0220842
0.0152642
0.0105515
0.00836562
0.00854116
0.0101199
0.0118395
0.0124053
0.0109397
0.00721258
0.00166569
-0.00466509
-0.010645
-0.0153211
-0.0182181
-0.0193728
-0.019383
-0.0190579
-0.019078
-0.019917
-0.0217124
-0.0242175
-0.0269345
-0.0294203
-0.0311337
-0.0318956
-0.0317102
-0.030831
-0.029634
-0.0283031
-0.0268734
-0.0250925
-0.0226667
-0.0194831
-0.0158289
-0.0124029
-0.0100776
-0.00958449
-0.0111393
-0.0143465
-0.0182715
-0.0219106
-0.0245476
-0.0259631
-0.0266164
-0.0272382
-0.0284459
-0.0305443
-0.0331644
-0.0354383
-0.0364758
-0.0355433
-0.0325413
-0.0280406
-0.0229713
-0.0183576
-0.0149635
-0.0131475
-0.0128324
-0.0136409
-0.0150978
-0.0167139
-0.0180919
-0.0189463
-0.0191361
-0.0186551
-0.0176208
-0.0161548
-0.0142691
-0.01179
-0.00838616
-0.00377546
0.00209582
0.00898922
0.0162823
0.0231595
0.0290782
0.0337546
0.037448
0.0407618
0.0444611
0.0491633
0.0550848
0.0620347
0.0694078
0.0764375
0.0823739
0.0866358
0.08897
0.0894299
0.0885348
0.0870617
0.0859506
0.0861008
0.0880768
0.0917765
0.0962872
0.0999829
0.100911
0.097416
0.0885277
0.0745054
0.0564965
0.0364598
0.0165057
-0.00153718
-0.0164997
-0.028041
-0.0364923
-0.0426224
-0.0472267
-0.050917
-0.0539557
-0.0562883
-0.0576304
-0.0577368
-0.0567471
-0.0551237
-0.053625
-0.0529844
-0.0535838
-0.0552307
-0.0572309
-0.0586647
-0.0588819
-0.0577826
-0.0559439
-0.0546317
-0.0554985
-0.0603665
-0.0709181
-0.0883828
-0.113194
-0.144425
-0.179442
-0.213589
-0.240672
-0.253997
-0.247615
-0.217303
-0.160756
-0.0767109
0.0359233
0.178011
0.348701
0.542646
0.746777
0.938748
1.08901
1.16712
1.15089
1.03459
0.83307
0.579295
0.315902
0.0835416
-0.0895365
-0.19311
-0.23437
-0.232108
-0.208241
-0.180899
-0.160583
-0.150245
-0.147908
-0.149729
-0.15244
-0.154228
-0.15484
-0.154771
-0.154516
-0.154439
-0.154619
-0.154963
-0.155221
-0.155071
-0.15418
-0.152243
-0.149073
-0.144812
-0.139841
-0.134711
-0.130045
-0.126348
-0.123924
-0.122771
-0.122687
-0.123309
-0.124202
-0.124933
-0.125145
-0.124665
-0.123433
-0.121584
-0.119248
-0.116686
-0.114116
-0.111643
-0.109381
-0.107291
-0.105378
-0.103623
-0.101977
-0.100479
-0.0991502
-0.0979986
-0.0970214
-0.096132
-0.0953041
-0.0944196
-0.0934253
-0.0922633
-0.0910388
-0.0898944
-0.089027
-0.0886653
-0.0889595
-0.0899464
-0.0914489
-0.0931803
-0.0948951
-0.0963707
-0.0975729
-0.0986276
-0.0997808
-0.101313
-0.103389
-0.106064
-0.109259
-0.112723
-0.116233
-0.119615
-0.122795
-0.125904
-0.128961
-0.131985
-0.13484
-0.137203
-0.138662
-0.138793
-0.137247
-0.133617
-0.127673
-0.119107
-0.107728
-0.0935371
-0.0768445
-0.0582813
-0.0386743
-0.0189742
6.82056e-5
0.0179281
0.0343472
0.0492636
0.0627076
0.0746934
0.0852046
0.0942265
0.101817
0.108133
0.11346
0.117988
0.121929
0.125236
0.127836
0.129674
0.130771
0.131081
0.130796
0.129957
0.12865
0.12685
0.124533
0.121807
0.118791
0.115672
0.112705
0.110053
0.107785
0.105967
0.104471
0.103141
0.101777
0.100156
0.0982263
0.0959949
0.093615
0.0913196
0.089221
0.087344
0.0854599
0.0832642
0.0804172
0.0768575
0.0726919
0.0682746
0.0640409
0.060334
0.0573186
0.0548077
0.0525074
0.0500782
0.0473136
0.0442843
0.0412056
0.0383921
0.0361806
0.034759
0.0341037
0.0340945
0.0343435
0.0345244
0.0343596
0.0337242
0.0326531
0.0312333
0.0295067
0.0274166
0.0248751
0.021735
0.0180161
0.0140147
0.0100928
0.00670678
0.00410778
0.00233182
0.0011742
0.000321414
-0.000469673
-0.00134304
-0.00225822
-0.00313887
-0.00390906
-0.00457713
-0.00512351
-0.00562098
-0.00602938
-0.00622019
-0.00609101
-0.00559955
-0.0048214
-0.00400077
-0.00336414
-0.00303862
-0.00296362
-0.00280465
-0.00211365
-0.000555572
0.00206138
0.00558132
0.00966027
0.0140282
0.0183989
0.0227484
0.0271517
0.0317682
0.0367548
0.0421823
0.0481134
0.0547151
0.062102
0.0703523
0.0793222
0.0884908
0.0969978
0.103791
0.107824
0.108408
0.105633
0.100303
0.0939148
0.0881894
0.0847301
0.0843213
0.0865841
0.0899353
0.0921564
0.0909017
0.0846999
0.0732422
0.05763
0.0397583
0.02165
0.00479642
-0.0100799
-0.0229557
-0.0340487
-0.0433714
-0.050669
-0.0554718
-0.0575441
-0.0571685
-0.0551361
-0.0524777
-0.0502888
-0.0492616
-0.04961
-0.0509555
-0.0529025
-0.0550731
-0.0572659
-0.0594536
-0.0617859
-0.064178
-0.0663935
-0.0680511
-0.0687744
-0.0685564
-0.0679324
-0.0682768
-0.0717742
-0.0809484
-0.0979655
-0.123998
-0.158176
-0.196655
-0.232383
-0.255326
-0.253422
-0.213608
-0.124287
0.0213715
0.221658
0.462897
0.718047
0.948991
1.11347
1.17599
1.11901
0.949898
0.700524
0.419147
0.156315
-0.0488386
-0.178005
-0.234816
-0.238853
-0.215724
-0.18772
-0.167951
-0.159864
-0.160609
-0.165152
-0.169407
-0.171287
-0.170764
-0.168818
-0.166504
-0.16434
-0.162523
-0.161037
-0.159802
-0.158718
-0.157763
-0.156883
-0.156061
-0.155256
-0.154413
-0.153364
-0.15192
-0.150005
-0.147683
-0.145143
-0.142595
-0.140213
-0.13804
-0.136
-0.133861
-0.131306
-0.12813
-0.124247
-0.119762
-0.114972
-0.110278
-0.106244
-0.10326
-0.101576
-0.101171
-0.101796
-0.102956
-0.104184
-0.105125
-0.105518
-0.105371
-0.104712
-0.103759
-0.102632
-0.101465
-0.100273
-0.0991135
-0.0979425
-0.0967842
-0.0955887
-0.094232
-0.0926739
-0.0908182
-0.0886073
-0.0860496
-0.0833991
-0.0809644
-0.0791206
-0.078291
-0.0786645
-0.0802601
-0.0827976
-0.0858613
-0.0888729
-0.0913238
-0.0928777
-0.0933534
-0.0928778
-0.0916031
-0.0898064
-0.0876639
-0.085179
-0.0821821
-0.0782787
-0.0728765
-0.06535
-0.0551587
-0.0419725
-0.0258113
-0.00714216
0.013121
0.0338616
0.0537227
0.0715812
0.0864823
0.0979483
0.106039
0.111218
0.11426
0.115922
0.116859
0.117423
0.117696
0.117609
0.116955
0.115637
0.113688
0.111211
0.108523
0.105893
0.103586
0.101805
0.100601
0.0998984
0.0995081
0.0991725
0.0985091
0.0972077
0.0950142
0.0916657
0.0872498
0.0820324
0.0764654
0.0710029
0.06602
0.0616933
0.0579307
0.0545368
0.0512626
0.0480068
0.0448639
0.0419943
0.0396119
0.0378365
0.0365776
0.0356248
0.034628
0.0333163
0.0314411
0.0288645
0.0256139
0.0217055
0.0172889
0.0124376
0.00730784
0.00213395
-0.00275886
-0.00698519
-0.0102058
-0.0121181
-0.012678
-0.012045
-0.0106596
-0.00911286
-0.00801441
-0.00781376
-0.00873817
-0.0105841
-0.0129231
-0.0151985
-0.0169078
-0.0176901
-0.0174091
-0.0162491
-0.0145787
-0.0127928
-0.0114447
-0.010919
-0.0114581
-0.0130639
-0.0155131
-0.0184399
-0.0214011
-0.0240771
-0.0263012
-0.028085
-0.029457
-0.0304792
-0.0311338
-0.0313585
-0.0310722
-0.0302932
-0.0289288
-0.0269425
-0.0241822
-0.0204547
-0.0154867
-0.00908985
-0.00140741
0.0071583
0.0158834
0.0238837
0.0304017
0.0350196
0.0377829
0.0392968
0.0404704
0.0423608
0.0458493
0.0513786
0.0588883
0.0678293
0.0771979
0.0858073
0.092505
0.0963775
0.0970461
0.0948171
0.0906998
0.0862731
0.083311
0.0833361
0.0871203
0.0941453
0.102773
0.110426
0.114388
0.112544
0.104035
0.0893032
0.0699127
0.0480603
0.0260172
0.00575829
-0.0114751
-0.0248981
-0.0343956
-0.0404017
-0.0436565
-0.0452646
-0.0462927
-0.0477131
-0.0500111
-0.0530986
-0.0565797
-0.0598753
-0.0624731
-0.0640876
-0.0648185
-0.0647955
-0.0642179
-0.0631636
-0.0615188
-0.0592197
-0.0563455
-0.053196
-0.0504213
-0.0493568
-0.0519137
-0.0603538
-0.0768766
-0.102986
-0.138322
-0.179466
-0.219364
-0.247257
-0.249577
-0.211565
-0.120552
0.0300438
0.23666
0.482367
0.736477
0.958348
1.10595
1.147
1.06925
0.885856
0.632698
0.358697
0.111818
-0.073785
-0.185043
-0.229301
-0.227229
-0.203342
-0.177343
-0.159977
-0.153377
-0.154566
-0.159217
-0.163977
-0.16722
-0.168769
-0.169004
-0.16826
-0.166709
-0.164454
-0.161686
-0.158705
-0.155845
-0.153333
-0.151216
-0.149525
-0.148217
-0.147206
-0.146447
-0.145951
-0.14564
-0.145436
-0.145269
-0.144919
-0.144197
-0.142942
-0.141122
-0.138868
-0.136287
-0.133529
-0.130628
-0.127531
-0.124182
-0.120542
-0.116677
-0.11271
-0.108927
-0.105506
-0.10253
-0.100172
-0.0984406
-0.0973296
-0.0968035
-0.0967798
-0.0971862
-0.0978502
-0.0986303
-0.0994122
-0.10003
-0.100436
-0.10059
-0.100521
-0.100242
-0.0997147
-0.0989776
-0.0980138
-0.0968705
-0.0956112
-0.0943086
-0.0930384
-0.0918246
-0.0907238
-0.0896545
-0.0886806
-0.0879121
-0.0874387
-0.0874404
-0.0879765
-0.0890071
-0.0903966
-0.0918384
-0.0930963
-0.0940149
-0.0944454
-0.0944569
-0.093932
-0.092548
-0.0896803
-0.0845471
-0.0764174
-0.0648633
-0.0500339
-0.0326701
-0.0140458
0.00430664
0.0209575
0.0348421
0.0455746
0.0533418
0.0589237
0.0633554
0.0677157
0.0728872
0.0793106
0.0870851
0.0958104
0.104826
0.113302
0.120298
0.124978
0.126902
0.126041
0.122924
0.118484
0.113719
0.109435
0.106052
0.103545
0.101548
0.0996465
0.0975608
0.0951753
0.0925465
0.0898112
0.0869978
0.084077
0.0810837
0.0780855
0.075368
0.0732072
0.0716819
0.0707952
0.0701731
0.0692646
0.0675965
0.0648808
0.0611921
0.0569616
0.0526657
0.0487146
0.0453434
0.0424774
0.0398467
0.0371502
0.0341701
0.0309055
0.0274939
0.0241793
0.0212003
0.018663
0.0164766
0.0143965
0.0121083
0.00947983
0.00643579
0.00310122
-0.000194885
-0.00323286
-0.00591581
-0.00829887
-0.0106041
-0.013114
-0.0160195
-0.0194412
-0.0231925
-0.0269233
-0.0301832
-0.0324504
-0.0333443
-0.0327309
-0.0307174
-0.0278014
-0.0246405
-0.0219094
-0.0201078
-0.0194441
-0.0196635
-0.020187
-0.0203869
-0.0198495
-0.0184936
-0.016606
-0.0147758
-0.0135761
-0.0132853
-0.0138719
-0.0150453
-0.0164164
-0.0176779
-0.0186825
-0.0195529
-0.0204689
-0.0214849
-0.0225093
-0.0233275
-0.0235915
-0.0230915
-0.0218262
-0.019998
-0.0180533
-0.016446
-0.0153226
-0.0144572
-0.0131365
-0.010351
-0.00510882
0.0030277
0.013768
0.0260845
0.0384841
0.0494292
0.0579499
0.0639265
0.0681245
0.0716746
0.0755507
0.0802968
0.0857274
0.0911812
0.0958662
0.099134
0.100745
0.100835
0.0998998
0.0985848
0.0975386
0.0973613
0.0984215
0.100872
0.104306
0.107834
0.110133
0.109877
0.106016
0.0980989
0.086443
0.0719777
0.0560658
0.0401607
0.025368
0.0123066
0.00115057
-0.00837178
-0.016624
-0.0239054
-0.0304325
-0.0360446
-0.0404986
-0.043496
-0.0449657
-0.045274
-0.0450887
-0.0453022
-0.0466128
-0.0494135
-0.0533381
-0.0574934
-0.0605855
-0.0615575
-0.0600377
-0.0566717
-0.0529655
-0.0510076
-0.0529269
-0.060377
-0.0741666
-0.0943154
-0.120399
-0.151564
-0.18645
-0.222605
-0.255795
-0.279571
-0.285034
-0.261221
-0.196684
-0.0825827
0.0835089
0.293753
0.527567
0.75278
0.930833
1.02618
1.01644
0.900367
0.699735
0.453963
0.208723
0.0036066
-0.137835
-0.211519
-0.229788
-0.213845
-0.185128
-0.159176
-0.143315
-0.138031
-0.139994
-0.14499
-0.1497
-0.152388
-0.152722
-0.151126
-0.148377
-0.145416
-0.142996
-0.141661
-0.141465
-0.14196
-0.142394
-0.141875
-0.139893
-0.136383
-0.131684
-0.126506
-0.121473
-0.117042
-0.113336
-0.11022
-0.107546
-0.105165
-0.103041
-0.101278
-0.100023
-0.0994243
-0.0995153
-0.100248
-0.101416
-0.102656
-0.103493
-0.10337
-0.101916
-0.0990031
-0.0948539
-0.090148
-0.0856463
-0.0820433
-0.0796196
-0.0782533
-0.0775026
-0.0768928
-0.0762538
-0.0757859
-0.075985
-0.0773547
-0.079917
-0.0831936
-0.0863784
-0.0884723
-0.0889125
-0.0877453
-0.0856067
-0.083494
-0.0824678
-0.0831545
-0.0856673
-0.0895237
-0.0938913
-0.097786
-0.100408
-0.101251
-0.100251
-0.0977834
-0.0944163
-0.0909044
-0.0878947
-0.0859943
-0.0855721
-0.0867886
-0.0894419
-0.0929591
-0.0965079
-0.0990053
-0.09925
-0.0963012
-0.0895296
-0.0787212
-0.0642419
-0.0468634
-0.0276472
-0.00785948
0.0114395
0.0293629
0.0454786
0.0597335
0.0723383
0.0837505
0.0942997
0.10419
0.113268
0.121278
0.127683
0.132114
0.134368
0.134609
0.133267
0.130917
0.128095
0.124984
0.121577
0.117653
0.113014
0.107882
0.102814
0.0986264
0.0960747
0.0955585
0.0968284
0.0991747
0.101516
0.102885
0.102764
0.100995
0.0979123
0.0940427
0.0899825
0.0860736
0.0825497
0.0794444
0.076642
0.0740107
0.0713701
0.0685533
0.0654558
0.0620654
0.058283
0.0542155
0.050175
0.0464741
0.0434719
0.0414187
0.0402759
0.0397824
0.0393268
0.0383291
0.036413
0.0335593
0.0300646
0.0264478
0.0231669
0.0205331
0.0186231
0.0173991
0.0167582
0.0165707
0.0167324
0.0170993
0.0173716
0.017155
0.0160434
0.01361
0.00989154
0.00510375
-5.37612e-5
-0.00477734
-0.00811806
-0.00943909
-0.00850029
-0.00575693
-0.00198649
0.00174066
0.00459916
0.00616531
0.00656449
0.00643704
0.00651539
0.00726463
0.00863562
0.0100563
0.0106552
0.00959798
0.00652477
0.00160088
-0.00442927
-0.0105667
-0.0159002
-0.0196689
-0.0216937
-0.021981
-0.0210307
-0.0193887
-0.0176292
-0.0162718
-0.015571
-0.0155144
-0.0158863
-0.0162708
-0.0162348
-0.015487
-0.0138002
-0.0111666
-0.0077233
-0.00356567
0.00121127
0.00649555
0.012187
0.0182221
0.0244279
0.0305969
0.036539
0.0421379
0.0473374
0.0522174
0.0570291
0.0620123
0.0673733
0.0732456
0.0795047
0.0858371
0.0915599
0.0959466
0.0984327
0.0987393
0.0969576
0.0936916
0.0898193
0.086282
0.0839681
0.0834377
0.0849744
0.0884451
0.0931271
0.0977955
0.100871
0.100779
0.0962425
0.086704
0.072531
0.0548673
0.0354001
0.0159006
-0.00193405
-0.0169218
-0.0283794
-0.0362053
-0.0407526
-0.0427383
-0.0431554
-0.0430491
-0.0432066
-0.0440197
-0.0455479
-0.0475336
-0.0495504
-0.0511664
-0.0521171
-0.052334
-0.0517776
-0.050514
-0.048638
-0.046389
-0.0442347
-0.0428629
-0.0433378
-0.0470088
-0.0553937
-0.0697106
-0.0907541
-0.118232
-0.150382
-0.183512
-0.212263
-0.230449
-0.232279
-0.213546
-0.172514
-0.109807
-0.0273904
0.0726857
0.189384
0.322914
0.473631
0.639912
0.815795
0.989044
1.1409
1.24837
1.2888
1.24598
1.11591
0.910094
0.654736
0.385139
0.137568
-0.0595188
-0.191529
-0.259378
-0.276384
-0.261924
-0.234972
-0.20933
-0.191838
-0.183447
-0.181739
-0.183448
-0.185986
-0.188014
-0.189119
-0.189175
-0.188194
-0.18613
-0.183041
-0.179235
-0.175216
-0.17154
-0.168629
-0.166595
-0.165376
-0.164744
-0.164515
-0.164695
-0.165376
-0.166653
-0.168362
-0.170123
-0.171273
-0.171128
-0.169304
-0.165851
-0.161317
-0.156505
-0.152182
-0.148846
-0.14658
-0.1452
-0.14426
-0.143354
-0.142179
-0.140662
-0.138785
-0.136601
-0.134224
-0.131812
-0.129516
-0.127542
-0.126077
-0.125189
-0.12488
-0.125042
-0.125461
-0.125868
-0.126133
-0.126134
-0.125867
-0.125444
-0.12496
-0.124473
-0.124084
-0.123915
-0.124205
-0.125131
-0.126807
-0.129195
-0.132061
-0.135054
-0.137797
-0.140161
-0.142213
-0.1442
-0.146369
-0.148857
-0.151501
-0.1541
-0.15636
-0.158052
-0.159005
-0.159075
-0.157904
-0.155072
-0.149977
-0.142133
-0.13131
-0.117613
-0.101479
-0.0835879
-0.0646649
-0.045438
-0.0265775
-0.0086893
0.00791783
0.0230977
0.0369605
0.0497082
0.0616096
0.0727171
0.0828577
0.0918441
0.0994832
0.105806
0.111057
0.115558
0.119523
0.122846
0.125326
0.126576
0.126328
0.124633
0.121727
0.11806
0.114169
0.110429
0.107024
0.103985
0.101219
0.0986435
0.0961748
0.0938695
0.0917106
0.0897702
0.0879707
0.0862291
0.0845452
0.0829362
0.0815579
0.0806875
0.0804934
0.081051
0.0822246
0.083731
0.0850892
0.0860096
0.0862325
0.0855983
0.0841691
0.0819979
0.0791063
0.07557
0.0714338
0.0667893
0.0617422
0.0565475
0.0513438
0.0464035
0.0419536
0.0381378
0.0351523
0.0330156
0.0315674
0.0305426
0.0294992
0.0279751
0.0257324
0.0226855
0.0189421
0.0149445
0.0111204
0.0077894
0.00521527
0.00335982
0.00209653
0.0012008
0.000571476
9.7704e-5
-0.000114258
-5.29262e-5
0.000287549
0.000647943
0.000788579
0.000245427
-0.00122067
-0.003716
-0.00711372
-0.0109705
-0.0147879
-0.0181443
-0.0207314
-0.0224862
-0.0235882
-0.024303
-0.0248679
-0.0254662
-0.0260103
-0.0263375
-0.0264103
-0.0261528
-0.0258686
-0.0258733
-0.0264474
-0.0276207
-0.0291159
-0.0301906
-0.0300821
-0.0280201
-0.0236102
-0.0168543
-0.00824266
0.00162009
0.0119835
0.0221891
0.0317073
0.0401338
0.0471336
0.0526141
0.0566415
0.0595556
0.0620197
0.0647213
0.0681538
0.0725618
0.0776007
0.0824793
0.086324
0.0883429
0.0880723
0.0857146
0.0819134
0.0775862
0.0737277
0.0711694
0.0703845
0.0716278
0.0750048
0.080424
