-0.167104
-0.170849
-0.174237
-0.177342
-0.17993
-0.181471
-0.181481
-0.179786
-0.176606
-0.172494
-0.168019
-0.163668
-0.159848
-0.15678
-0.154499
-0.153004
-0.151957
-0.151041
-0.149818
-0.147947
-0.145404
-0.142348
-0.139387
-0.13702
-0.13567
-0.135373
-0.135771
-0.136315
-0.13636
-0.135422
-0.133419
-0.130467
-0.126873
-0.122935
-0.118999
-0.115191
-0.111725
-0.108697
-0.106174
-0.104171
-0.102581
-0.101124
-0.099587
-0.0977133
-0.0955219
-0.0931518
-0.0909321
-0.0892383
-0.0883162
-0.088243
-0.0889282
-0.0901485
-0.091626
-0.0930164
-0.0941237
-0.0949398
-0.095426
-0.0957209
-0.0959232
-0.0961585
-0.0964518
-0.0968755
-0.0973282
-0.0977121
-0.0978791
-0.097612
-0.0967851
-0.0953638
-0.0934354
-0.0912372
-0.0891237
-0.0874017
-0.0861129
-0.0850942
-0.0837752
-0.0813314
-0.0767411
-0.0689746
-0.0573383
-0.0416378
-0.0224454
-0.0009436
0.0211015
0.0418736
0.0599153
0.0743937
0.0853738
0.0935055
0.0998743
0.105426
0.110786
0.116125
0.121257
0.125823
0.129527
0.132138
0.133664
0.134188
0.133767
0.132523
0.130574
0.128131
0.125575
0.123238
0.121371
0.120013
0.118954
0.117712
0.115798
0.112921
0.109109
0.104762
0.100481
0.0969864
0.0945908
0.0933585
0.0930284
0.0931178
0.0931525
0.0928434
0.0919383
0.0904517
0.0883605
0.0856162
0.0822076
0.0781021
0.0734405
0.0684961
0.0636024
0.0590557
0.0551554
0.0518453
0.048797
0.0456025
0.0417887
0.0371554
0.0317685
0.0260997
0.020779
0.016336
0.0130953
0.011008
0.00978709
0.00905805
0.00857832
0.0081564
0.00799091
0.00813
0.00866725
0.00949052
0.0103038
0.0107408
0.0104231
0.00922461
0.00725588
0.00491714
0.00267164
0.0010052
0.000281075
0.000443214
0.00131274
0.00234553
0.00306661
0.00309797
0.00239767
0.00120273
0.000154946
-2.06513e-5
0.00122466
0.00418341
0.00867665
0.0144013
0.0207587
0.0274337
0.034193
0.041129
0.0484673
0.0563685
0.0649733
0.0741257
0.0834479
0.0922734
0.099711
0.104873
0.106983
0.105831
0.101713
0.0956646
0.0889994
0.0832563
0.0797473
0.0793392
0.0820386
0.0869698
0.0924142
0.0962218
0.0964018
0.0916479
0.0817585
0.067548
0.0507913
0.0334312
0.0170706
0.00268661
-0.00944911
-0.0194735
-0.0276809
-0.0342159
-0.0391276
-0.0425121
-0.0445287
-0.0455942
-0.046287
-0.0471961
-0.0487341
-0.0510688
-0.0541107
-0.0575315
-0.0609528
-0.0639618
-0.0660462
-0.0667726
-0.0657669
-0.0629319
-0.0585642
-0.0537257
-0.0504261
-0.0513672
-0.0593779
-0.0764882
-0.102967
-0.136368
-0.171457
-0.200807
-0.216151
-0.210108
-0.177278
-0.114298
-0.0191974
0.108727
0.268493
0.455385
0.658254
0.857451
1.02554
1.13179
1.15011
1.06803
0.892878
0.651972
0.386083
0.138519
-0.0566408
-0.182479
-0.241069
-0.248989
-0.229087
-0.202183
-0.181574
-0.171898
-0.171447
-0.175713
-0.180506
-0.183445
-0.184199
-0.183616
-0.182784
-0.182356
-0.182349
-0.182304
-0.181536
-0.179447
-0.175804
-0.170816
-0.165126
-0.159661
-0.155237
-0.15248
-0.151541
-0.152185
-0.153808
-0.155768
-0.157543
-0.158815
-0.159382
-0.15935
-0.158741
-0.157627
-0.156051
-0.154161
-0.152171
-0.150427
-0.149259
-0.148831
-0.149017
-0.14932
-0.14905
-0.147635
-0.144787
-0.140682
-0.135838
-0.131013
-0.126969
-0.124146
-0.12267
-0.122332
-0.122714
-0.123447
-0.124121
-0.124504
-0.124618
-0.124462
-0.124278
-0.124328
-0.124887
-0.126094
-0.127937
-0.130202
-0.132521
-0.134508
-0.135934
-0.136777
-0.137136
-0.137193
-0.136998
-0.136453
-0.135543
-0.134318
-0.133069
-0.132303
-0.132468
-0.133645
-0.135439
-0.136927
-0.136959
-0.134452
-0.128743
-0.119614
-0.107213
-0.0919293
-0.0740712
-0.0540544
-0.0325172
-0.0102325
0.0116813
0.0319697
0.0495147
0.0635598
0.0737396
0.080286
0.0837986
0.0852022
0.0856304
0.0861755
0.0876761
0.0905042
0.0943989
0.0985712
0.10193
0.103588
0.103136
0.100749
0.0972198
0.0936008
0.0909327
0.0898106
0.090278
0.091848
0.0936386
0.0946938
0.094147
0.091533
0.0868932
0.0806402
0.0735867
0.066732
0.061009
0.0570521
0.0550593
0.0547466
0.0554784
0.0564098
0.0567947
0.0561895
0.0545941
0.0523345
0.049832
0.0473697
0.0450062
0.0424383
0.0390718
0.0346105
0.0289719
0.0225287
0.0161708
0.0107257
0.00696419
0.00507739
0.00458734
0.00457428
0.0040808
0.00241553
-0.000438752
-0.00386991
-0.00692765
-0.00876786
-0.00896233
-0.00774448
-0.00587893
-0.00433344
-0.00394505
-0.00507358
-0.00752384
-0.0106549
-0.0137007
-0.0160587
-0.0172892
-0.0173163
-0.0163852
-0.0148326
-0.0131474
-0.0117026
-0.0108426
-0.0107821
-0.0115863
-0.013109
-0.0151202
-0.0172927
-0.0192521
-0.0207775
-0.0216109
-0.0215289
-0.0203004
-0.017669
-0.0134321
-0.00746811
7.84272e-5
0.00884269
0.018223
0.0275559
0.036167
0.0437958
0.0504235
0.0562924
0.0618156
0.0672541
0.0724989
0.0771525
0.0805715
0.0821589
0.0816312
0.079126
0.0752753
0.0709992
0.0671656
0.0645635
0.0635765
0.0644593
0.0671873
0.0715981
0.0772287
0.0830651
0.0878021
0.0898274
0.0876656
0.0803853
0.0680502
0.0516322
0.0329575
0.0140672
-0.003268
-0.017931
-0.0294953
-0.0382009
-0.0446802
-0.0496572
-0.0538003
-0.0574809
-0.0608294
-0.0636236
-0.0655109
-0.0662057
-0.065608
-0.0639522
-0.0616914
-0.0594427
-0.0577306
-0.0567657
-0.056526
-0.0566304
-0.0565845
-0.0558317
-0.0541102
-0.0514766
-0.0484381
-0.0460032
-0.045561
-0.0489401
-0.057917
-0.0740213
-0.0980181
-0.129381
-0.165562
-0.201618
-0.230062
-0.241371
-0.224712
-0.16947
-0.0675783
0.083529
0.277795
0.498369
0.717606
0.900609
1.01258
1.02802
0.93892
0.758793
0.520215
0.266346
0.0391164
-0.13158
-0.233914
-0.273761
-0.269145
-0.24194
-0.210716
-0.186667
-0.173445
-0.169605
-0.171452
-0.175415
-0.179032
-0.181179
-0.181429
-0.179714
-0.176219
-0.17144
-0.166093
-0.160993
-0.15686
-0.154166
-0.152835
-0.152576
-0.152757
-0.152842
-0.152459
-0.151418
-0.149951
-0.148282
-0.146695
-0.145471
-0.144695
-0.144362
-0.14446
-0.144793
-0.145233
-0.145512
-0.145413
-0.144662
-0.143085
-0.140641
-0.137342
-0.133294
-0.128782
-0.124099
-0.119605
-0.115614
-0.112429
-0.110156
-0.108891
-0.108491
-0.10881
-0.1097
-0.110871
-0.11214
-0.113309
-0.114107
-0.114272
-0.113709
-0.112324
-0.110247
-0.10772
-0.105211
-0.103158
-0.101962
-0.101745
-0.102324
-0.103312
-0.10426
-0.104782
-0.104874
-0.104726
-0.104848
-0.105733
-0.10772
-0.11075
-0.114527
-0.11861
-0.122537
-0.1261
-0.129288
-0.132189
-0.134873
-0.1372
-0.138499
-0.137895
-0.134217
-0.126428
-0.113834
-0.0964699
-0.0749961
-0.0508179
-0.0256456
-0.00121529
0.0211951
0.0408613
0.0577894
0.0723369
0.0849947
0.0961413
0.105945
0.114384
0.121471
0.127371
0.132392
0.136879
0.141014
0.14486
0.1484
0.151603
0.154416
0.157014
0.15945
0.161688
0.163495
0.164548
0.16446
0.16316
0.16074
0.15762
0.154201
0.150855
0.147675
0.144542
0.141252
0.137669
0.133747
0.129664
0.12565
0.12203
0.118953
0.116414
0.114383
0.112652
0.111023
0.109221
0.107033
0.104245
0.100838
0.0969308
0.0928022
0.088778
0.0853532
0.0827985
0.0812249
0.0804859
0.0801999
0.0797873
0.0786511
0.0762659
0.0723992
0.0670979
0.0608179
0.0541801
0.04798
0.0428694
0.0392385
0.0371614
0.0362737
0.0360919
0.0359713
0.0355274
0.0346407
0.0333897
0.0319871
0.0305738
0.0291908
0.0278405
0.02644
0.0250007
0.0237285
0.0229086
0.0227922
0.0234269
0.0245681
0.0258776
0.0269079
0.0272012
0.026465
0.0247233
0.0221106
0.0189879
0.0158693
0.0132306
0.0115481
0.0111955
0.0123073
0.0147911
0.0182893
0.0224086
0.026722
0.0310745
0.0354572
0.0400083
0.0448702
0.0501661
0.0559337
0.0621724
0.06885
0.0759115
0.0833286
0.0907915
0.0976751
0.10325
0.106789
0.107815
0.106393
0.103154
0.0990147
0.09489
0.0913543
0.0884931
0.0862672
0.0846176
0.0839216
0.0848251
0.0879174
0.0930438
0.0990722
0.103829
0.104805
0.100058
0.088844
0.0718923
0.0512519
0.0294288
0.00869623
-0.00933202
-0.0238332
-0.0346725
-0.0420784
-0.0464991
-0.0484962
-0.0487791
-0.0481916
-0.0475116
-0.0474344
-0.0483195
-0.0503829
-0.0534752
-0.0572178
-0.0610986
-0.0645153
-0.066994
-0.0682117
-0.0679914
-0.0665525
-0.0643437
-0.0619903
-0.0603293
-0.0604214
-0.0635389
-0.0711311
-0.0845447
-0.104665
-0.131337
-0.162559
-0.193991
-0.218799
-0.228294
-0.212892
-0.163308
-0.071927
0.0652301
0.246732
0.463637
0.697996
0.92308
1.10622
1.21473
1.22388
1.12479
0.929088
0.667592
0.383401
0.120849
-0.0857986
-0.219577
-0.282387
-0.290718
-0.267611
-0.234558
-0.206128
-0.188461
-0.181176
-0.180685
-0.183041
-0.185636
-0.187565
-0.188906
-0.189972
-0.190894
-0.191464
-0.191368
-0.190578
-0.189157
-0.187354
-0.18552
-0.183942
-0.182706
-0.181769
-0.180993
-0.180205
-0.179295
-0.178225
-0.17694
-0.175394
-0.173432
-0.17085
-0.167596
-0.163777
-0.15962
-0.155408
-0.151393
-0.147637
-0.14407
-0.140525
-0.136863
-0.133096
-0.129479
-0.126308
-0.123985
-0.122731
-0.122615
-0.1234
-0.124719
-0.126106
-0.127186
-0.127697
-0.127686
-0.127385
-0.127172
-0.127446
-0.128384
-0.129914
-0.13175
-0.133464
-0.13467
-0.13507
-0.134434
-0.132726
-0.129979
-0.12631
-0.121989
-0.117384
-0.113075
-0.10958
-0.10727
-0.106348
-0.106645
-0.107944
-0.109887
-0.112258
-0.114856
-0.117639
-0.120475
-0.12322
-0.125668
-0.127469
-0.128196
-0.127407
-0.124505
-0.118971
-0.110403
-0.0986645
-0.0840454
-0.0672805
-0.0493803
-0.0315431
-0.0147121
0.000364338
0.0136212
0.0253851
0.0363107
0.0471417
0.0583229
0.0699452
0.0817544
0.0931432
0.103429
0.112123
0.118806
0.123429
0.12612
0.127192
0.127039
0.126134
0.124941
0.123815
0.12296
0.122421
0.122034
0.121542
0.12075
0.119585
0.118172
0.116752
0.115602
0.114869
0.114469
0.114152
0.113649
0.11265
0.110969
0.10859
0.105665
0.102241
0.0985475
0.0947459
0.0909616
0.087278
0.0836193
0.0800199
0.0764217
0.0728106
0.0693891
0.066296
0.063663
0.0616268
0.060193
0.0592807
0.0587413
0.0584778
0.0583429
0.058202
0.0578814
0.0571801
0.0558246
0.0537334
0.0508335
0.0472495
0.0430849
0.038613
0.0339965
0.029384
0.0249381
0.0206863
0.0168315
0.013299
0.0100194
0.00688269
0.00362155
0.000145737
-0.00348385
-0.00702444
-0.0101574
-0.0125177
-0.0138799
-0.0142584
-0.0137547
-0.0126327
-0.0111242
-0.00946718
-0.00793064
-0.00686089
-0.00651069
-0.00700104
-0.00814802
-0.00947092
-0.010225
-0.00969108
-0.00728265
-0.00277361
0.00353446
0.0110573
0.0189048
0.0262039
0.0322356
0.0366693
0.0395261
0.0413435
0.0429171
0.0452132
0.0489671
0.0546652
0.0621334
0.0707826
0.0795625
0.0873744
0.093246
0.0965757
0.0972436
0.0956814
0.0927673
0.0895721
0.0872935
0.0869139
0.0888804
0.0927825
0.0973882
0.100723
0.100686
0.0956532
0.085099
0.0696214
0.0509713
0.0311991
0.0123306
-0.00427804
-0.0179057
-0.0284701
-0.0362131
-0.0414393
-0.044418
-0.0455683
-0.0455467
-0.0450041
-0.0446404
-0.0449555
-0.0461345
-0.0479942
-0.0501912
-0.0523307
-0.054267
-0.0559077
-0.0573757
-0.0587556
-0.0600392
-0.061148
-0.0620705
-0.0629807
-0.0644319
-0.067222
-0.0723298
-0.0804358
-0.0920612
-0.107536
-0.127041
-0.150695
-0.178167
-0.208256
-0.238102
-0.262988
-0.276284
-0.26999
-0.235512
-0.164475
-0.0504628
0.108857
0.30886
0.535395
0.763764
0.960864
1.09125
1.12624
1.05323
0.881238
0.640193
0.373581
0.126514
-0.0663985
-0.188596
-0.242845
-0.246377
-0.222414
-0.191843
-0.167971
-0.155481
-0.152764
-0.15536
-0.159057
-0.161327
-0.161652
-0.160709
-0.159526
-0.158744
-0.158482
-0.158456
-0.158227
-0.157428
-0.155872
-0.153674
-0.15107
-0.148285
-0.145586
-0.143067
-0.140621
-0.138195
-0.135771
-0.133371
-0.131093
-0.12898
-0.12697
-0.124826
-0.122221
-0.118871
-0.114623
-0.109585
-0.104184
-0.0989603
-0.0945828
-0.0915305
-0.0900392
-0.0899903
-0.0910019
-0.0925618
-0.0941157
-0.0953306
-0.0960353
-0.096305
-0.0963799
-0.0965298
-0.0971467
-0.0983845
-0.10019
-0.102332
-0.104302
-0.105597
-0.10583
-0.10482
-0.102678
-0.0997668
-0.0965231
-0.0934374
-0.0908755
-0.0891668
-0.0884659
-0.0887867
-0.090054
-0.0920245
-0.0943028
-0.0964376
-0.098118
-0.0991876
-0.0997196
-0.100014
-0.100413
-0.101303
-0.102847
-0.10491
-0.107128
-0.108962
-0.109876
-0.109466
-0.107422
-0.103676
-0.0981354
-0.0907323
-0.0814602
-0.0703967
-0.0578444
-0.0443371
-0.0305807
-0.0173072
-0.00499809
0.00622863
0.0166658
0.0268624
0.0373944
0.0485988
0.060388
0.0723106
0.0835931
0.0934221
0.101316
0.107032
0.110794
0.113084
0.114429
0.115344
0.116102
0.116826
0.117533
0.118101
0.11835
0.118148
0.117332
0.115833
0.113688
0.111036
0.10821
0.10569
0.103864
0.103002
0.103081
0.103844
0.104757
0.105335
0.105198
0.104202
0.102397
0.100053
0.0972873
0.0941905
0.0908001
0.087032
0.0828986
0.0785114
0.0740421
0.0697858
0.0660559
0.0630863
0.060951
0.0594756
0.0582914
0.0570202
0.0553085
0.052967
0.0500921
0.0468881
0.0436437
0.040542
0.0377445
0.0352111
0.0328947
0.0308301
0.0290748
0.0275579
0.026331
0.0252356
0.0240743
0.0226942
0.0208881
0.0185435
0.0155867
0.0120707
0.00812159
0.00394674
-0.000142264
-0.0037618
-0.00661533
-0.00847101
-0.00934436
-0.00943198
-0.00907875
-0.00858946
-0.00828329
-0.00832029
-0.00879715
-0.00970344
-0.0108739
-0.0121378
-0.0133743
-0.0143452
-0.0150573
-0.0154921
-0.0157925
-0.0161324
-0.0166383
-0.0172771
-0.0178484
-0.018099
-0.0177062
-0.0165092
-0.0144608
-0.0116856
-0.00825672
-0.00428085
0.000291072
0.00565716
0.0120063
0.0192709
0.0271504
0.0349761
0.0419509
0.0476007
0.0518161
0.0551346
0.0584973
0.0628586
0.0687869
0.0761176
0.0839401
0.0908886
0.0956848
0.097514
0.0962944
0.0927097
0.0878024
0.0827643
0.0786344
0.076214
0.0760567
0.0783853
0.0829805
0.0889589
0.0946284
0.0979414
0.0968724
0.0901574
0.077828
0.0610132
0.0417769
0.0223085
0.00432417
-0.0113154
-0.0244866
-0.0354583
-0.0445435
-0.0518892
-0.057501
-0.0614332
-0.0637676
-0.064845
-0.0650059
-0.0645882
-0.0639027
-0.0631319
-0.0624501
-0.0619097
-0.0615007
-0.061251
-0.0610737
-0.0608913
-0.0607684
-0.0609335
-0.061957
-0.064632
-0.0697017
-0.0776025
-0.0881542
-0.100514
-0.113502
-0.12633
-0.139061
-0.152901
-0.169906
-0.191696
-0.217898
-0.244792
-0.264898
-0.267304
-0.238961
-0.167661
-0.0453806
0.127572
0.33928
0.565197
0.770628
0.917489
0.97414
0.925079
0.777098
0.558792
0.312755
0.0834215
-0.095104
-0.20686
-0.25501
-0.256337
-0.232747
-0.203355
-0.179777
-0.165717
-0.159761
-0.15867
-0.159597
-0.1609
-0.162091
-0.162849
-0.162833
-0.16157
-0.158827
-0.154815
-0.15017
-0.145673
-0.142045
-0.139755
-0.138905
-0.139366
-0.140761
-0.142532
-0.144019
-0.144715
-0.144142
-0.142198
-0.139024
-0.135029
-0.130619
-0.126103
-0.121686
-0.117342
-0.113075
-0.10902
-0.105361
-0.102346
-0.100119
-0.0987641
-0.0981503
-0.098066
-0.0982669
-0.0986551
-0.099249
-0.100099
-0.101248
-0.102575
-0.103805
-0.104514
-0.104297
-0.102812
-0.100087
-0.0964278
-0.0924133
-0.088632
-0.0855449
-0.0833332
-0.0817701
-0.080573
-0.079402
-0.0779531
-0.0762026
-0.0741994
-0.0720566
-0.0698884
-0.067791
-0.0658729
-0.0642684
-0.0631288
-0.0626325
-0.0628877
-0.0640364
-0.0661253
-0.0692577
-0.0734918
-0.0788393
-0.0851283
-0.0920188
-0.0989024
-0.10503
-0.109619
-0.111997
-0.111762
-0.108756
-0.102994
-0.0946138
-0.0839416
-0.0713481
-0.0573684
-0.0426956
-0.0279763
-0.0138294
-0.000634835
0.0114297
0.0223775
0.0322309
0.0411193
0.0491375
0.0562966
0.0626613
0.0683983
0.0736852
0.0785948
0.0831223
0.0871934
0.090638
0.0933748
0.0954957
0.0972213
0.0988209
0.100521
0.102393
0.104298
0.106051
0.107411
0.108306
0.108737
0.108764
0.108395
0.1075
0.105842
0.103324
0.0998807
0.0956862
0.0911672
0.0869031
0.0834333
0.0811512
0.0800971
0.0799854
0.0801293
0.0797799
0.0783318
0.0755027
0.0714711
0.0667618
0.0621396
0.0581822
0.0553507
0.0536837
0.0530478
0.0530916
0.0532994
0.0531295
0.052036
0.0496407
0.0458518
0.0409736
0.0356076
0.0305214
0.0263155
0.0231964
0.0209112
0.0188399
0.0164004
0.0131953
0.00932854
0.00520169
0.00142329
-0.00153641
-0.0035011
-0.00460885
-0.0052481
-0.00572277
-0.00630397
-0.00693291
-0.00748675
-0.00772661
-0.00756797
-0.00705513
-0.00653443
-0.00632071
-0.00672581
-0.00787614
-0.00958683
-0.011542
-0.01349
-0.0152999
-0.0171416
-0.0192887
-0.0219235
-0.0249584
-0.0280358
-0.0304917
-0.0317714
-0.0316082
-0.030094
-0.0276625
-0.0248624
-0.0221656
-0.0198714
-0.0180128
-0.0164931
-0.0152835
-0.0143138
-0.0137
-0.0134247
-0.0135002
-0.0137303
-0.0138014
-0.0134285
-0.0123673
-0.0105288
-0.00804517
-0.00500906
-0.00147054
0.00253278
0.00704142
0.0120817
0.0175468
0.0233082
0.0293166
0.035569
0.042262
0.0495183
0.0572634
0.0652464
0.0727403
0.0789685
0.0832562
0.085211
0.0849258
0.0828548
0.0796007
0.0758099
0.0720455
0.068621
0.0658545
0.0640195
0.0634555
0.0643186
0.0663761
0.0688717
0.0705869
0.0701107
0.0662689
0.0584971
0.0469531
0.0325744
0.0167053
0.000707766
-0.0142898
-0.0275957
-0.0387108
-0.0474078
-0.0535867
-0.057286
-0.0589328
-0.0591858
-0.0589412
-0.0590433
-0.0601779
-0.0623582
-0.0651382
-0.0676851
-0.0691855
-0.0692633
-0.0680914
-0.0662875
-0.0647303
-0.0641076
-0.0645817
-0.0658079
-0.0667836
-0.0666505
-0.0648707
-0.0615496
-0.0576173
-0.0547187
-0.0549569
-0.0603304
-0.0724467
-0.092185
-0.119108
-0.151357
-0.184828
-0.213192
-0.227824
-0.218274
-0.173514
-0.0843753
0.0532839
0.235034
0.445392
0.657786
0.838219
0.952383
0.974768
0.896836
0.730465
0.506157
0.264696
0.0461852
-0.120249
-0.222284
-0.26441
-0.262922
-0.238313
-0.208369
-0.184192
-0.169581
-0.163203
-0.161612
-0.161481
-0.160904
-0.159632
-0.158086
-0.15696
-0.15652
-0.156638
-0.156964
-0.157142
-0.156938
-0.156259
-0.155145
-0.153531
-0.151397
-0.148636
-0.145116
-0.140837
-0.136027
-0.130996
-0.126084
-0.121585
-0.117668
-0.114442
-0.11189
-0.110009
-0.108747
-0.108023
-0.107736
-0.107619
-0.107534
-0.107305
-0.106928
-0.106422
-0.105883
-0.105403
-0.10503
-0.104718
-0.104512
-0.104547
-0.104887
-0.105465
-0.106217
-0.106948
-0.107375
-0.10733
-0.106774
-0.10577
-0.104513
-0.103098
-0.101573
-0.0999521
-0.0982401
-0.0964482
-0.09467
-0.0930414
-0.0917447
-0.0909628
-0.0906966
-0.0910437
-0.0920266
-0.0935939
-0.0956428
-0.0981586
-0.10098
-0.103998
-0.107068
-0.110202
-0.113447
-0.116898
-0.120716
-0.124925
-0.129446
-0.133966
-0.137902
-0.140535
-0.141076
-0.138827
-0.133296
-0.124483
-0.112768
-0.0989592
-0.0841066
-0.0693112
-0.0556479
-0.0439243
-0.0345496
-0.027543
-0.0223993
-0.018164
-0.0137628
-0.00806412
-0.000303474
0.00979289
0.0218981
0.0352858
0.0490676
0.062442
0.0749017
0.0862176
0.0963307
0.105265
0.113063
0.119652
0.12493
0.128969
0.131876
0.133912
0.13536
0.136512
0.137576
0.138644
0.139764
0.140931
0.142069
0.142979
0.143571
0.143711
0.143399
0.142732
0.141895
0.140953
0.13985
0.138328
0.136128
0.133085
0.129241
0.124869
0.120317
0.115942
0.111913
0.108224
0.10478
0.10147
0.0983829
0.0957456
0.0937651
0.0926654
0.0923664
0.0925623
0.0928506
0.0927869
0.0920388
0.0905591
0.0885022
0.0861494
0.0836417
0.0809757
0.078067
0.074818
0.0712682
0.0675948
0.0642769
0.0616855
0.0600382
0.0592364
0.0589419
0.0585998
0.0576704
0.0557633
0.0529077
0.0493633
0.0457126
0.0424423
0.0400783
0.038813
0.0385032
0.0387277
0.0389525
0.0386941
0.0376926
0.0359815
0.0338737
0.0317829
0.0299647
0.0284826
0.027169
0.0257291
0.0238213
0.0213904
0.0186329
0.0159595
0.0138952
0.0128092
0.0128433
0.0139417
0.0157001
0.0177571
0.0196957
0.0213915
0.0228468
0.024253
0.0257668
0.0275226
0.0295164
0.031632
0.0339203
0.0364407
0.0393523
0.0428634
0.0470756
0.0519777
0.057392
0.063169
0.0691723
0.0753805
0.0816962
0.0881029
0.0943286
0.0999626
0.104364
0.106989
0.1075
0.105824
0.102339
0.0978069
0.0932933
0.0900094
0.0890409
0.0911015
0.0962245
0.103662
0.111644
0.117889
0.12012
0.116695
0.107249
0.0926814
0.0749113
0.056202
0.0383938
0.0224579
0.00862194
-0.00344466
-0.014035
-0.0232099
-0.0305939
-0.0359197
-0.0391423
-0.0406865
-0.0412926
-0.0417547
-0.042676
-0.0442369
-0.0462253
-0.048211
-0.0497279
-0.0506429
-0.0509332
-0.0508208
-0.0505034
-0.0501878
-0.0500688
-0.0505358
-0.0522543
-0.0565098
-0.0648642
-0.0789023
-0.0996444
-0.126817
-0.158051
-0.188262
-0.209747
-0.212414
-0.184817
-0.115735
0.0027223
0.17152
0.381049
0.609126
0.822404
0.982149
1.05381
1.01775
0.876401
0.65555
0.397638
0.149756
-0.0495602
-0.179754
-0.240853
-0.248711
-0.226616
-0.196194
-0.171563
-0.157937
-0.153875
-0.155057
-0.157377
-0.158422
-0.157556
-0.155419
-0.152865
-0.15056
-0.148865
-0.147775
-0.147244
-0.146977
-0.146679
-0.146163
-0.145296
-0.14418
-0.142992
-0.141873
-0.140894
-0.140025
-0.139089
-0.137973
-0.136591
-0.134988
-0.13323
-0.13138
-0.129384
-0.12711
-0.12434
-0.120956
-0.116925
-0.112372
-0.10757
-0.102834
-0.0984762
-0.0948511
-0.0921272
-0.0904727
-0.0899898
-0.090584
-0.0921239
-0.0942159
-0.0964178
-0.0982485
-0.0994295
-0.0998074
-0.0994544
-0.0985857
-0.0973581
-0.0958144
-0.0939069
-0.0914983
-0.0885909
-0.0853375
-0.0821638
-0.0795023
-0.077768
-0.0771743
-0.0775883
-0.0788147
-0.0804715
-0.0822861
-0.0840625
-0.0857691
-0.0874587
-0.089317
-0.0913561
-0.0935707
-0.0958295
-0.097976
-0.0998933
-0.101529
-0.102877
-0.103944
-0.104634
-0.104616
-0.10339
-0.100211
-0.0942585
-0.0848436
-0.0716266
-0.0547887
-0.0350238
-0.0134559
0.00841824
0.0292413
0.0478477
0.0636452
0.0764751
0.0866167
0.0945503
0.100874
0.105965
0.110154
0.113625
0.116477
0.118867
0.120973
0.122864
0.124611
0.126177
0.127418
0.128301
0.128803
0.129024
0.129001
0.128764
0.128206
0.127098
0.125185
0.122353
0.118626
0.114265
0.109676
0.105292
0.101445
0.0982515
0.0956185
0.0932795
0.0908325
0.0879451
0.0845039
0.0805117
0.0761805
0.0718136
0.0677335
0.0642104
0.0613942
0.0592963
0.0578928
0.0569959
0.0564067
0.0558859
0.0551792
0.0540204
0.0521956
0.0495389
0.0460028
0.0417105
0.036879
0.0319105
0.0271709
0.0230062
0.0195527
0.0168405
0.0147668
0.0131415
0.0117308
0.0103475
0.00887628
0.00729755
0.00571638
0.00424097
0.00311345
0.00254714
0.00254175
0.00304861
0.00374023
0.004271
0.00425059
0.00339274
0.00160018
-0.000978686
-0.00408638
-0.00729663
-0.0101736
-0.0124706
-0.0139687
-0.0146138
-0.0143326
-0.0130737
-0.0107758
-0.00741484
-0.00305732
0.00218902
0.00803716
0.01421
0.020364
0.0263764
0.0321647
0.0378396
0.0436763
0.0498893
0.0567697
0.0642783
0.0721234
0.0797549
0.0863021
0.0907945
0.0924944
0.0910158
0.0866896
0.0806082
0.0744546
0.070092
0.0691116
0.072109
0.0783638
0.0858879
0.0918506
0.0934605
0.0889509
0.0779806
0.061853
0.0429807
0.0241188
0.00744111
-0.00573731
-0.0153164
-0.0219675
-0.0266325
-0.0301025
-0.0329937
-0.0355651
-0.0379665
-0.0402949
-0.0426246
-0.0450866
-0.0477208
-0.050577
-0.0534473
-0.0561738
-0.0584502
-0.0600396
-0.0608419
-0.0608737
-0.0602236
-0.0592005
-0.058071
-0.0569819
-0.0561878
-0.0561657
-0.0577919
-0.062624
-0.0725302
-0.0892922
-0.11366
-0.144522
-0.178315
-0.209378
-0.230859
-0.236402
-0.221502
-0.183928
-0.122841
-0.0371868
0.0750933
0.216436
0.386534
0.578365
0.77466
0.947991
1.06539
1.09748
1.0286
0.863784
0.629507
0.367073
0.120979
-0.073486
-0.198508
-0.255677
-0.26139
-0.238552
-0.208103
-0.183405
-0.169412
-0.164669
-0.164984
-0.166434
-0.166787
-0.165741
-0.16399
-0.162445
-0.161644
-0.16182
-0.162726
-0.164035
-0.165376
-0.166239
-0.166271
-0.165182
-0.162941
-0.159705
-0.155928
-0.152205
-0.149178
-0.147243
-0.146471
-0.146447
-0.146298
-0.145137
-0.142171
-0.13714
-0.130365
-0.122592
-0.114839
-0.107954
-0.10247
-0.0986126
-0.0963352
-0.0954615
-0.0959004
-0.0974731
-0.0998187
-0.102606
-0.105283
-0.107405
-0.10862
-0.108947
-0.108622
-0.108018
-0.10743
-0.107074
-0.106923
-0.106798
-0.106638
-0.106304
-0.105761
-0.104995
-0.103935
-0.102533
-0.100825
-0.0989998
-0.0973943
-0.0964372
-0.0964403
-0.0975083
-0.0994016
-0.10155
-0.103386
-0.10447
-0.104712
-0.104415
-0.104263
-0.104866
-0.106642
-0.109489
-0.112929
-0.116129
-0.118175
-0.118384
-0.11621
-0.111451
-0.103969
-0.0936147
-0.0802438
-0.0638246
-0.044521
-0.0229704
-0.000258117
0.0222138
0.0429157
0.0605366
0.0743819
0.084347
0.0909108
0.0949171
0.0972755
0.0985956
0.0993966
0.0999362
0.100395
0.100915
0.101556
0.102367
0.103264
0.104037
0.104486
0.10444
0.10387
0.102878
0.101582
0.100195
0.0987279
0.0972041
0.0955815
0.0937285
0.0915132
0.0889244
0.0858726
0.0822688
0.0780992
0.0734529
0.0684457
0.0635069
0.0590428
0.0555159
0.0532324
0.0521797
0.0522279
0.0528907
0.0536184
0.0539817
0.053709
0.0526961
0.0509953
0.0487891
0.0462058
0.0432562
0.0399306
0.0361802
0.0320526
0.0276804
0.0233681
0.0192584
0.0154105
0.0116882
0.00793401
0.0039875
-4.6429e-5
-0.0038843
-0.00716173
-0.00954196
-0.0108794
-0.011187
-0.0107434
-0.00970334
-0.00819871
-0.00635721
-0.00435981
-0.00252431
-0.00120017
-0.000760176
-0.00135992
-0.00285102
-0.00484196
-0.0068145
-0.0083591
-0.00920224
-0.00944277
-0.00928235
-0.00894868
-0.00852703
-0.00802718
-0.00730078
-0.00613759
-0.0043405
-0.00160822
0.00226558
0.00748063
0.0140149
0.0216786
0.0300063
0.0383615
0.04606
0.0526461
0.0580758
0.0626988
0.067146
0.072078
0.0778202
0.0841569
0.0903766
0.0953306
0.0978679
0.0972295
0.0933338
0.0869089
0.0793262
0.0722941
0.0675735
0.0664987
0.0697232
0.0769428
0.0867883
0.0970149
0.104957
0.10827
0.105563
0.0967919
0.0832459
0.066909
0.0498456
0.0335439
0.0184936
0.00451119
-0.00902981
-0.0223701
-0.035322
-0.0471653
-0.0569612
-0.0640371
-0.0682016
-0.0699028
-0.0700471
-0.0696141
-0.069495
-0.0700868
-0.0713993
-0.0731281
-0.0748003
-0.0760739
-0.0765535
-0.0761083
-0.0747469
-0.0728156
-0.0709272
-0.0699157
-0.0708048
-0.0746375
-0.0822037
-0.0942137
-0.111093
-0.133222
-0.160571
-0.192217
-0.225944
-0.257627
-0.281355
-0.289676
-0.274405
-0.227356
-0.141458
-0.0128983
0.156422
0.356238
0.566312
0.757544
0.896703
0.954597
0.91502
0.781347
0.577301
0.341131
0.115004
-0.0666722
-0.185592
-0.241603
-0.249005
-0.228689
-0.200265
-0.176756
-0.163209
-0.158694
-0.159425
-0.161755
-0.163299
-0.1633
-0.162109
-0.160351
-0.158483
-0.156722
-0.155133
-0.153494
-0.151623
-0.14927
-0.146334
-0.143032
-0.139753
-0.137173
-0.135823
-0.135938
-0.1372
-0.138973
-0.140333
-0.140394
-0.138637
-0.134974
-0.129735
-0.123533
-0.117018
-0.110779
-0.105264
-0.100714
-0.0972138
-0.0946825
-0.0929442
-0.0918784
-0.0913544
-0.0913688
-0.0918492
-0.0928277
-0.0942594
-0.095951
-0.0977582
-0.0993956
-0.100715
-0.101669
-0.102338
-0.102872
-0.103364
-0.103874
-0.10417
-0.103912
-0.102756
-0.100485
-0.0971254
-0.0929562
-0.0885773
-0.0846556
-0.0816902
-0.0800735
-0.0799497
-0.0812444
-0.0837618
-0.0872528
-0.0914427
-0.0960151
-0.100629
-0.104878
-0.108404
-0.111012
-0.112668
-0.113516
-0.1138
-0.113686
-0.113113
-0.11166
-0.108721
-0.103617
-0.0958328
-0.0850764
-0.0715032
-0.05554
-0.0378931
-0.0194666
-0.00128591
0.0156384
0.0303625
0.0422492
0.0510835
0.0572321
0.0613977
0.06456
0.0676445
0.0711457
0.0751642
0.0794013
0.0833284
0.0865804
0.0889241
0.0905054
0.0916199
0.0926535
0.0938776
0.0953269
0.0968339
0.0980264
0.0984639
0.0977664
0.0958147
0.0928507
0.0892506
0.085584
0.082253
0.0793924
0.0768096
0.0740855
0.0707437
0.0665341
0.0615658
0.056398
0.0517872
0.0484873
0.0470055
0.0472659
0.0487263
0.0504678
0.051541
0.0512133
0.0492839
0.0459729
0.0417913
0.037242
0.0326582
0.0282159
0.023924
0.0198259
0.0160873
0.0128761
0.0103061
0.00840421
0.00704927
0.00594654
0.00491109
0.0037963
0.00262476
0.00152596
0.00061836
-5.79981e-5
-0.000552878
-0.00103617
-0.00165359
-0.0025787
-0.00378719
-0.00505081
-0.00605573
-0.00654329
-0.00640837
-0.00585802
-0.00526834
-0.00516048
-0.00584165
-0.00746897
-0.00979362
-0.0124418
-0.0148772
-0.0167751
-0.0180342
-0.0186763
-0.0188792
-0.0187169
-0.0182213
-0.0174856
-0.0166133
-0.0158256
-0.0153758
-0.0153537
-0.0155973
-0.0156999
-0.0151376
-0.0134905
-0.010602
-0.00659397
-0.00185796
0.00333414
0.00882711
0.0146793
0.0209332
0.0276682
0.0346852
0.0417087
0.0484122
0.0546041
0.060253
0.0653804
0.0700247
0.0740342
0.0770421
0.0786142
0.0784225
0.0765907
0.073755
0.0709247
0.0693541
0.0701276
0.0738163
0.0800689
0.0874724
0.09379
0.0965795
0.0936581
0.0838375
0.0672772
0.0455717
0.021192
-0.00295279
-0.0242662
-0.0409369
-0.0522081
-0.0582769
-0.0600652
-0.0589784
-0.0566349
-0.0544367
-0.0532968
-0.0535087
-0.0548756
-0.0567945
-0.058606
-0.0598725
-0.0604774
-0.0605414
-0.0603648
-0.0601155
-0.0598665
-0.0595681
-0.0590998
-0.0583516
-0.0573583
-0.05639
-0.0558768
-0.0564723
-0.0590478
-0.0646322
-0.0743155
-0.08905
-0.109692
-0.136452
-0.168207
-0.201833
-0.231841
-0.250214
-0.246639
-0.209901
-0.130151
-0.00206851
0.17165
0.377359
0.589994
0.776067
0.900654
0.936493
0.872535
0.718559
0.503576
0.268136
0.0529878
-0.111704
-0.212664
-0.253899
-0.251627
-0.226661
-0.197027
-0.173968
-0.161373
-0.157855
-0.159612
-0.162728
-0.164581
-0.164077
-0.161154
-0.156459
-0.15092
-0.145603
-0.141391
-0.138894
-0.138266
-0.139269
-0.141201
-0.143307
-0.144808
-0.145189
-0.14422
-0.141991
-0.138871
-0.135399
-0.132112
-0.129408
-0.127524
-0.126429
-0.125923
-0.125712
-0.125482
-0.125
-0.124075
-0.122662
-0.120828
-0.11866
-0.116234
-0.113589
-0.110726
-0.107584
-0.104149
-0.100401
-0.0964337
-0.0923682
-0.0884441
-0.0849479
-0.0822255
-0.0806341
-0.08034
-0.0813109
-0.0832798
-0.0857806
-0.0882142
-0.090136
-0.0912453
-0.0915887
-0.0913047
-0.0906422
-0.0898369
-0.0890001
-0.0881488
-0.0872052
-0.0861713
-0.0850568
-0.0840582
-0.0834403
-0.0835894
-0.0848255
-0.0873941
-0.0913146
-0.096386
-0.102234
-0.10835
-0.114118
-0.119111
-0.123014
-0.12568
-0.127046
-0.127072
-0.125567
-0.122131
-0.116207
-0.10725
-0.0949191
-0.0792402
-0.0607428
-0.0404149
-0.0194271
0.00109969
0.0202541
0.0376017
0.0529747
0.0665645
0.0785375
0.088974
0.0978955
0.105267
0.111121
0.115583
0.11895
0.121598
0.12391
0.126153
0.128536
0.131016
0.133596
0.136079
0.138362
0.140278
0.141707
0.142496
0.142474
0.141531
0.139651
0.136919
0.133677
0.130323
0.12721
0.124465
0.121972
0.119471
0.116657
0.113382
0.109824
0.106434
0.103739
0.102216
0.101956
0.102751
0.103977
0.105012
0.105182
0.1041
0.101654
0.0980574
0.0937099
0.0890971
0.0846267
0.0806186
0.0772058
0.0743728
0.0719676
0.0697586
0.0675041
0.0650414
0.0622701
0.0592375
0.0560823
0.0530228
0.0502187
0.0479277
0.0463393
0.0455688
0.0456812
0.0465962
0.0480211
0.049638
0.0511279
0.0523082
0.053089
0.0535281
0.0536729
0.0535211
0.0528945
0.0515629
0.0492539
0.0459008
0.0416294
0.0368077
0.031862
0.027147
0.0228677
0.0191187
0.0157309
0.0126132
0.0097634
0.00722328
0.00517943
0.00380441
0.00317497
0.00323652
0.00401432
0.00545734
0.00752863
0.0102149
0.0135459
0.0174504
0.0218932
0.0267208
0.0318019
0.0369939
0.0421315
0.0471536
0.0520313
0.0568012
0.0616113
0.0665117
0.0715789
0.0766321
0.0814707
0.085756
0.0891253
0.0913377
0.0923429
0.0923788
0.0919958
0.0919259
0.0929105
0.0954942
0.0996702
0.104596
0.108661
0.109981
0.106781
0.0981856
0.0844528
0.0668774
0.0474554
0.0281496
0.0104821
-0.00478044
-0.017631
-0.0281837
-0.0367464
-0.0434259
-0.0482816
-0.0514315
-0.0531839
-0.0539533
-0.0542054
-0.054247
-0.0542849
-0.0543779
-0.0544446
-0.0544686
-0.0544561
-0.0544331
-0.0543689
-0.0543986
-0.0544392
-0.0545261
-0.0547037
-0.0551351
-0.0560192
-0.0577573
-0.0609593
-0.0665238
-0.0754706
-0.0892203
-0.108756
-0.134594
-0.165889
-0.199901
-0.231556
-0.253736
-0.257799
-0.234659
-0.175749
-0.0747363
0.0705215
0.255472
0.466711
0.681278
0.868494
0.995615
1.03559
0.975397
0.821703
0.600615
0.351387
0.116006
-0.0719448
-0.194958
-0.253442
-0.261704
-0.240754
-0.210433
-0.184329
-0.168264
-0.162072
-0.162373
-0.165393
-0.168421
-0.170281
-0.170765
-0.170303
-0.169284
-0.168038
-0.166725
-0.165235
-0.163452
-0.161209
-0.158317
-0.154965
-0.151377
-0.147837
-0.144584
-0.141727
-0.13918
-0.136879
-0.134847
-0.133154
-0.131908
-0.131057
-0.130411
-0.129506
-0.12788
-0.12519
-0.121393
-0.11685
-0.112159
-0.107906
-0.104614
-0.102423
-0.101127
-0.100434
-0.100001
-0.0996751
-0.0994684
-0.0993869
-0.0995439
-0.099889
-0.100301
-0.100595
-0.100645
-0.100419
-0.09995
-0.0993959
-0.0988994
-0.0985495
-0.0983169
-0.0980883
-0.0976573
-0.0967605
-0.0952197
-0.0928826
-0.0897781
-0.0861037
-0.0821155
-0.078167
-0.0746904
-0.0721063
-0.0707347
-0.0707415
-0.0721997
-0.0749753
-0.0786996
-0.0829021
-0.0870984
-0.0908073
-0.0938793
-0.0963585
-0.0984907
-0.100573
-0.102633
-0.104364
-0.105151
-0.104036
-0.100169
-0.0930717
-0.0827812
-0.0699351
-0.055591
-0.0409291
-0.0270313
-0.0147331
-0.00444354
0.00388357
0.010643
0.0163491
0.0217076
0.0273335
0.0337491
0.0412156
0.0498018
0.0591987
0.0690111
0.0786532
0.0876352
0.0955721
0.102292
0.107848
0.112407
0.116136
0.119212
0.121677
0.123529
0.124726
0.125253
0.125087
0.124185
0.122664
0.120661
0.118392
0.116034
0.113793
0.111721
0.10986
0.108097
0.106276
0.104266
0.101946
0.0992408
0.0961708
0.0926885
0.0889184
0.0850146
0.0811621
0.0776395
0.074698
0.0724137
0.0708376
0.0698293
0.0692723
0.0689514
0.0688169
0.0686968
0.068437
0.0678174
0.0664524
0.0641163
0.0606786
0.0562596
0.0511923
0.0459962
0.0411583
0.0370342
0.0337738
0.0312411
0.0291837
0.0272688
0.0251292
0.0226005
0.0195532
0.0160177
0.0120902
0.00795094
0.00385003
0.000120002
-0.00289074
-0.00473752
-0.00532893
-0.00468025
-0.00323872
-0.00160982
-0.000370057
-6.39743e-5
-0.000801618
-0.00246299
-0.00469288
-0.00719558
-0.00970357
-0.0121596
-0.0145798
-0.0169397
-0.0192108
-0.0211967
-0.0225827
-0.0231831
-0.0226448
-0.0207788
-0.0174216
-0.0125679
-0.00647309
0.000475771
0.00774435
0.014734
0.021048
0.026396
0.0308314
0.0345461
0.0378324
0.0410107
0.0443077
0.0479276
0.0519833
0.0565237
0.0613989
0.0662751
0.0706442
0.0740211
0.0759331
0.0760949
0.0745474
0.0717539
0.068386
0.0655411
0.0642609
0.0654043
0.0693987
0.0758007
0.0833041
0.0899217
0.0934502
0.092207
0.0853952
0.0732529
0.0570769
0.0387343
0.0200931
0.00267988
-0.012586
-0.0253649
-0.0356274
-0.0435392
-0.0492929
-0.0531908
-0.0555799
-0.0568961
-0.057609
-0.0581881
-0.0588589
-0.0598574
-0.0611527
-0.0625555
-0.0638981
-0.0649332
-0.0654995
-0.0655361
-0.0651152
-0.0643746
-0.0634869
-0.0622788
-0.0605888
-0.0582591
-0.0553162
-0.0522358
-0.0501691
-0.0507615
-0.0561305
-0.0681574
-0.0881542
-0.116271
-0.151161
-0.189282
-0.22496
-0.250435
-0.256748
-0.234493
-0.175166
-0.0726766
0.0747047
0.262237
0.476815
0.696492
0.892047
1.03154
1.08745
1.04447
0.905279
0.691819
0.440539
0.193163
-0.0140194
-0.158944
-0.237005
-0.259075
-0.245
-0.215711
-0.187143
-0.167642
-0.158701
-0.157677
-0.160736
-0.164801
-0.168253
-0.170585
-0.171874
-0.172337
-0.17205
-0.171185
-0.170027
-0.168879
-0.167908
-0.167155
-0.166411
-0.165369
-0.163715
-0.161208
-0.157811
-0.153598
-0.148851
-0.143928
-0.139192
-0.13518
-0.132153
-0.130387
-0.129742
-0.129925
-0.130328
-0.130376
-0.129639
-0.128095
-0.125997
-0.123777
-0.121961
-0.120785
-0.120277
-0.120278
-0.120499
-0.120734
-0.120839
-0.120819
-0.120694
-0.120481
-0.120182
-0.119756
-0.11911
-0.118076
-0.116485
-0.114094
-0.110894
-0.106866
-0.102418
-0.0980671
-0.094485
-0.0920852
-0.0910926
-0.0913304
-0.0924371
-0.0939599
-0.0955243
-0.0970633
-0.0985833
-0.100137
-0.101721
-0.103292
-0.104701
-0.105819
-0.106608
-0.107164
-0.107632
-0.108222
-0.109036
-0.110209
-0.111614
-0.112838
-0.113254
-0.11208
-0.108464
-0.101818
-0.0919204
-0.0791745
-0.0643515
-0.0486193
-0.0332203
-0.0193992
-0.00805386
0.000383279
0.00593893
0.00908255
0.0105731
0.0114088
0.0124554
0.0144381
0.01785
0.0228538
0.0293532
0.0370565
0.0454126
0.0538086
0.0616832
0.0685625
0.0743996
0.0793289
0.0837218
0.0879087
0.0921275
0.0963462
0.100344
0.103774
0.106382
0.108151
0.109256
0.109994
0.110645
0.111285
0.111752
0.111678
0.110701
0.108518
0.105017
0.100414
0.0951883
0.0899252
0.0852231
0.081499
0.078808
0.076956
0.075384
0.0735529
0.07102
0.0677176
0.0638546
0.059967
0.0565576
0.054081
0.0527065
0.0522613
0.0524484
0.0527896
0.0527923
0.0521409
0.050696
0.0485306
0.0458871
0.0431564
0.040659
0.0386177
0.0370457
0.0358353
0.0347465
0.0335161
0.0319345
0.0298805
0.0273434
0.0243421
0.0209661
0.0172718
0.013395
0.0094448
0.00562227
0.00202714
-0.00124897
-0.00418785
-0.00686681
-0.00932587
-0.0116029
-0.0137394
-0.0156961
-0.01748
-0.0190408
-0.0203692
-0.0214617
-0.0222622
-0.0227443
-0.0228927
-0.0227618
-0.0225182
-0.0223048
-0.0223514
-0.0227876
-0.0236568
-0.0249141
-0.0264131
-0.0279188
-0.0292236
-0.030161
-0.0305539
-0.0302508
-0.0290606
-0.0266929
-0.0229088
-0.0175409
-0.0106032
-0.00248024
0.00631443
0.0150389
0.0229456
0.0293942
0.034
0.0367868
0.0381923
0.0390125
0.0403052
0.042916
0.0473719
0.0535339
0.0606424
0.0675995
0.073347
0.0770892
0.0785951
0.0781315
0.0764104
0.0743143
0.0728477
0.0728677
0.0750582
0.0795919
0.0859289
0.0926876
0.0977878
0.0991158
0.0949785
0.0848194
0.0693475
0.0502723
0.0297989
0.00998183
-0.00780549
-0.0228862
-0.0352316
-0.0450644
-0.0525537
-0.0578193
-0.0609094
-0.0619724
-0.0612732
-0.0591984
-0.0562622
-0.0530175
-0.0499892
-0.0476643
-0.0463756
-0.0462416
-0.0471929
-0.0489791
-0.0511259
-0.0532523
-0.0548486
-0.0556185
-0.0554782
-0.0545212
-0.053277
-0.0528751
-0.0549731
-0.0616772
-0.075129
-0.0968575
-0.127082
-0.163862
-0.202456
-0.235393
-0.252913
-0.243934
-0.19749
-0.10523
0.0356771
0.219592
0.430307
0.641238
0.818946
0.930224
0.950763
0.87302
0.709591
0.490861
0.256874
0.0463369
-0.113282
-0.210974
-0.251951
-0.252215
-0.231295
-0.205791
-0.185757
-0.174602
-0.171239
-0.172717
-0.176015
-0.179009
-0.180647
-0.180483
-0.178465
-0.174736
-0.169678
-0.163911
-0.158089
-0.152883
-0.148638
-0.145493
-0.143364
-0.142005
-0.14108
-0.140402
-0.139804
-0.139298
-0.138932
-0.13884
-0.139018
-0.139367
-0.139672
-0.139704
-0.139235
-0.13819
-0.136638
-0.134763
-0.132783
-0.130866
-0.129056
-0.127287
-0.125402
-0.123298
-0.120947
-0.118389
-0.115777
-0.113266
-0.110926
-0.108636
-0.106229
-0.103528
-0.100506
-0.0973525
-0.0944387
-0.0922126
-0.090999
-0.0909325
-0.0917971
-0.0931551
-0.0944907
-0.0952684
-0.0952939
-0.0946309
-0.0936291
-0.0927697
-0.0925432
-0.0932374
-0.0948653
-0.097032
-0.0991628
-0.100585
-0.10095
-0.100141
-0.0983794
-0.0962657
-0.0945377
-0.0937789
-0.0943655
-0.0963852
-0.099638
-0.103714
-0.108131
-0.112246
-0.115409
-0.116775
-0.115536
-0.111035
-0.102867
-0.0912128
-0.0768384
-0.0609875
-0.0451377
-0.030631
-0.0182994
-0.00841572
-0.000662893
0.00571355
0.0116523
0.017983
0.0252034
0.0334886
0.0425222
0.0516746
0.0601451
0.0671668
0.0722856
0.075563
0.0775745
0.0791548
0.0811392
0.0840628
0.0878816
0.092166
0.0961828
0.0993265
0.101233
0.101809
0.101322
0.100157
0.0986868
0.0973059
0.0962813
0.0956904
0.0955182
0.0956044
0.0956185
0.0952328
0.0942203
0.0924875
0.0901539
0.0875139
0.0849748
0.0828428
0.081276
0.0802295
0.0794182
0.078533
0.0772706
0.0755007
0.0732994
0.0707509
0.0679289
0.0647827
0.0610917
0.0568111
0.0520371
0.0470864
0.0425821
0.0391888
0.0373856
0.0372482
0.0385075
0.0403739
0.0420772
0.0428195
0.0421866
0.0401934
0.0371425
0.0335862
0.0299333
0.0264686
0.0233344
0.0204152
0.0176111
0.0148457
0.0120929
0.0093762
0.00681391
0.00449795
0.00267879
0.00153617
0.00113139
0.00143106
0.00204789
0.00242691
0.00199732
0.000405876
-0.00227115
-0.00545025
-0.00833411
-0.00992863
-0.0096059
-0.00727893
-0.00337186
0.00122652
0.00556437
0.00881651
0.0104599
0.0103046
0.0085308
0.00557061
0.00202253
-0.00133586
-0.00384859
-0.00496956
-0.00460056
-0.00317626
-0.00140193
-0.00029408
-0.000596767
-0.00256118
-0.00577231
-0.00923433
-0.0116521
-0.0117725
-0.0087919
-0.00265792
0.00605434
0.0162998
0.0268643
0.0367124
0.0452356
0.0523001
0.0581795
0.0634202
0.0686154
0.0742313
0.0804953
0.0871207
0.0934383
0.0983685
0.100834
0.100147
0.0963255
0.0902975
0.0837913
0.0787904
0.0769183
0.0789048
0.0841403
0.0907904
0.0961248
0.097545
0.0931193
0.0822822
0.0659283
0.0461116
0.0255606
0.00680022
-0.00834744
-0.0191047
-0.0256581
-0.0288339
-0.0297686
-0.0295116
-0.0289115
-0.0284183
-0.0283611
-0.0289584
-0.0304418
-0.0329062
-0.0364498
-0.0409212
-0.0459939
-0.0512623
-0.0563386
-0.0609928
-0.0650551
-0.068577
-0.0714371
-0.0734765
-0.0744406
-0.0740405
-0.0723079
-0.0696685
-0.0670786
-0.0661454
-0.0687618
-0.0769861
-0.0923781
-0.115486
-0.145105
-0.177773
-0.207519
-0.2261
-0.223671
-0.189681
-0.114846
0.00628984
0.172276
0.372177
0.584262
0.77777
0.918526
0.977208
0.937992
0.804403
0.599813
0.361647
0.131322
-0.056917
-0.183879
-0.247727
-0.260897
-0.24288
-0.21315
-0.185631
-0.167014
-0.158035
-0.156087
-0.157786
-0.160468
-0.162878
-0.164657
-0.165937
-0.166759
-0.167057
-0.166763
-0.165707
-0.163802
-0.161014
-0.15751
-0.15341
-0.148948
-0.144448
-0.140335
-0.137013
-0.134806
-0.133819
-0.1338
-0.134364
-0.134896
-0.13484
-0.133861
-0.131858
-0.129107
-0.126094
-0.123188
-0.120742
-0.118844
-0.117377
-0.116164
-0.115077
-0.11402
-0.112979
-0.111841
-0.110425
-0.108299
-0.105193
-0.100936
-0.095663
-0.0899562
-0.0845073
-0.0800146
-0.0769198
-0.0753146
-0.0749617
-0.0754657
-0.0764834
-0.0777573
-0.0793417
-0.0813557
-0.0839028
-0.087077
-0.0905997
-0.094037
-0.0968457
-0.0984279
-0.0985036
-0.0970461
-0.0943271
-0.0909105
-0.0874335
-0.0845694
-0.0827436
-0.0822712
-0.0832425
-0.0855679
-0.0891622
-0.0938292
-0.099285
-0.10518
-0.110958
-0.115969
-0.119502
-0.12086
-0.11954
-0.115251
-0.108009
-0.0981232
-0.0861029
-0.0725931
-0.0581702
-0.0432817
-0.0280782
-0.0125654
0.00342155
0.0199768
0.037017
0.0542078
0.0709779
0.0867855
0.101183
0.113937
0.124981
0.134305
0.141921
0.147899
0.152188
0.154869
0.156165
0.156345
0.155788
0.154777
0.153403
0.151719
0.149637
0.147171
0.14445
0.141752
0.139365
0.137578
0.136572
0.136403
0.136909
0.137772
0.138606
0.138977
0.138534
0.136968
0.134369
0.131029
0.127351
0.123776
0.12058
0.117785
0.115125
0.112239
0.108819
0.104765
0.100322
0.0958507
0.091853
0.0885806
0.0861224
0.0841823
0.0823419
0.0801608
0.0773862
0.0739212
0.0699403
0.0657407
0.0617052
0.0581413
0.0552934
0.0533701
0.0523954
0.0522933
0.0528762
0.0537803
0.0546901
0.0552181
0.0551236
0.0542258
0.0525177
0.0500439
0.0469236
0.0433079
0.0393623
0.0353105
0.0313023
0.0276286
0.0244808
0.0220309
0.0202689
0.0190932
0.0182909
0.0176158
0.0169055
0.0162675
0.015783
0.0156611
0.0159795
0.0166453
0.0174183
0.017939
0.0178615
0.0170692
0.0156487
0.0139591
0.0124977
0.0118295
0.0123304
0.0143141
0.0177189
0.0222929
0.0277306
0.0335209
0.0393172
0.0448545
0.0499949
0.0547395
0.0591204
0.0633091
0.06742
0.0713626
0.0752333
0.0790875
0.0830404
0.0872415
0.0916999
0.0962542
0.100477
0.103736
0.10547
0.105357
0.10351
0.100619
0.0977644
0.09613
0.096614
0.0994623
0.103934
0.108442
0.110844
0.109098
0.101855
0.0889727
0.0715134
0.0514161
0.0309925
0.0122361
-0.0035377
-0.0158704
-0.0249346
-0.0312938
-0.0355979
-0.0384468
-0.0403256
-0.0415868
-0.0425306
-0.0433932
-0.0443109
-0.045458
-0.0468346
-0.0485013
-0.0503277
-0.0521267
-0.053624
-0.0544737
-0.0544684
-0.0536449
-0.0523908
-0.0515879
-0.0525982
-0.0571886
-0.0672643
-0.0843124
-0.109017
-0.14044
-0.17534
-0.207694
-0.22904
-0.229479
-0.199119
-0.129847
-0.0171868
0.138151
0.329684
0.545271
0.76787
0.977103
1.15108
1.26892
1.31355
1.2749
1.15262
0.957607
0.711471
0.443328
0.18499
-0.0353524
-0.198692
-0.298326
-0.33975
-0.337352
-0.309228
-0.27242
-0.239086
-0.215255
-0.201575
-0.195523
-0.193691
-0.193191
-0.192499
-0.191372
-0.19026
-0.189708
-0.190142
-0.191576
-0.193681
-0.195979
-0.197986
-0.199297
-0.199747
-0.199301
-0.198068
-0.196144
-0.193576
-0.190419
-0.186655
-0.182411
-0.177925
-0.173371
-0.169104
-0.16534
-0.162238
-0.159901
-0.158337
-0.157557
-0.157406
-0.157706
-0.158067
-0.158185
-0.157723
-0.156654
-0.15516
-0.153549
-0.152238
-0.15144
-0.151231
-0.151471
-0.151803
-0.152001
-0.151843
-0.15117
-0.150075
-0.148531
-0.1465
-0.144118
-0.141406
-0.138465
-0.135452
-0.132582
-0.129998
-0.127836
-0.126292
-0.125405
-0.125384
-0.126313
-0.128231
-0.131074
-0.134433
-0.138012
-0.141332
-0.144159
-0.146519
-0.148463
-0.150328
-0.152259
-0.15423
-0.155948
-0.156848
-0.156165
-0.153249
-0.147547
-0.13878
-0.127022
-0.112676
-0.0963173
-0.0787072
-0.060618
-0.0427511
-0.0257181
-0.00985436
0.00461805
0.0177171
0.0295994
0.0404014
0.050381
0.0596171
0.0681689
0.0761385
0.0835724
0.0905285
0.097049
0.103061
0.108409
0.112953
0.116479
0.118878
0.12016
0.120445
0.119949
0.118957
0.11772
0.116358
0.114928
0.113364
0.111564
0.109504
0.107143
0.1045
0.101715
0.0987993
0.0958166
0.0929161
0.090325
0.0883144
0.0871044
0.0867126
0.0868431
0.0870099
0.0866222
0.0852069
0.0825741
0.0789133
0.0746692
0.0703564
0.066381
0.0629348
0.0600063
0.0574359
0.0550153
0.0526233
0.0501835
0.0475468
0.0447464
0.0417613
0.0385675
0.0352602
0.0318967
0.0285294
0.025276
0.0223561
0.0199606
0.0183811
0.0177041
0.0178225
0.0183128
0.0185522
0.0179562
0.0161137
0.0130278
0.00902613
0.00471723
0.000633544
-0.00284773
-0.00561185
-0.0076386
-0.00905312
-0.0099601
-0.0103893
-0.0104514
-0.0102356
-0.00986001
-0.00944511
-0.00898288
-0.00839049
-0.00752677
-0.00627855
-0.00464202
-0.00285947
-0.00114124
0.000327068
0.00154399
0.0028199
0.00462674
0.00735625
0.0112248
0.0162046
0.0218846
0.0278648
0.0337038
0.0390827
0.0438361
0.0478485
0.051157
0.0538215
0.0559964
0.0579278
0.0599341
0.0623373
0.0651613
0.0685164
0.0721676
0.0757409
0.0788233
0.0809893
0.0818071
0.0809214
0.0783246
0.0743027
0.069585
0.06533
0.0628477
0.0631923
0.0670213
0.0738654
0.0822466
0.0899252
0.094324
0.0934754
0.0864188
0.0735193
0.0562644
0.0366603
0.016645
-0.00233283
-0.0194119
-0.034379
-0.0471385
-0.0575461
-0.0654812
-0.0708826
-0.0739837
-0.0752663
-0.0754058
-0.0749795
-0.0743658
-0.0736688
-0.072738
-0.0714364
-0.0698885
-0.0683359
-0.0670747
-0.0662574
-0.0658407
-0.0655909
-0.0653311
-0.0651345
-0.0657863
-0.06878
-0.076053
-0.0896622
-0.111004
-0.140173
-0.175137
-0.211242
-0.241126
-0.255385
-0.243094
-0.193396
-0.0977283
0.0472058
0.236273
0.453437
0.671581
0.855874
0.97103
0.990775
0.906283
0.73045
0.495777
0.245609
0.0223278
-0.143924
-0.241456
-0.276699
-0.268418
-0.239083
-0.20744
-0.184288
-0.17239
-0.16939
-0.171114
-0.173942
-0.176
-0.176956
-0.177169
-0.176938
-0.176282
-0.17491
-0.172628
-0.169354
-0.165166
-0.160442
-0.155594
-0.151064
-0.147352
-0.14469
-0.143145
-0.142496
-0.142368
-0.142286
-0.141843
-0.140818
-0.139122
-0.136884
-0.134309
-0.131486
-0.128541
-0.1254
-0.122044
-0.118556
-0.115037
-0.111681
-0.108654
-0.105973
-0.103604
-0.101497
-0.099709
-0.0983595
-0.0977254
-0.0979491
-0.0988792
-0.100203
-0.101363
-0.101904
-0.10162
-0.100714
-0.0995843
-0.0988013
-0.0987521
-0.0994815
-0.100707
-0.101993
-0.102746
-0.102602
-0.101382
-0.0991488
-0.0961634
-0.0927531
-0.0892594
-0.0860895
-0.083447
-0.0814618
-0.0801747
-0.0795434
-0.0794172
-0.0797942
-0.0806808
-0.0821173
-0.0841553
-0.086803
-0.0899699
-0.0934685
-0.0970766
-0.10047
-0.103193
-0.10459
-0.103967
-0.100509
-0.093603
-0.0830278
-0.0690817
-0.0524454
-0.0341475
-0.0153597
0.00292557
0.0200376
0.0354647
0.0489993
0.0605736
0.0701806
0.0779745
0.084208
0.0892183
0.0933214
0.0967952
0.0997771
0.10231
0.104338
0.105756
0.106588
0.106842
0.106519
0.105702
0.10438
0.102647
0.100751
0.0990562
0.0979658
0.0977781
0.0985346
0.0999571
0.10142
0.102237
0.101741
0.0995432
0.0957339
0.0906755
0.0851083
0.0797292
0.0750661
0.0713956
0.0686372
0.0664744
0.0644353
0.0621134
0.0591758
0.0555857
0.0515464
0.0474158
0.0437999
0.041168
0.0397419
0.0394116
0.0397565
0.0400717
0.0397946
0.0386036
0.0365187
0.0338193
0.0309868
0.028338
0.0260111
0.023924
0.0218186
0.0194003
0.0165025
0.0130383
0.00914892
0.00503153
0.000941283
-0.00289602
-0.00624383
-0.00897681
-0.0109078
-0.0117836
-0.0114887
-0.00996949
-0.00737594
-0.00414275
-0.000887275
0.00179823
0.00341828
0.00385693
0.0033617
0.00244085
0.00159485
0.00122133
0.00135116
0.00175006
0.00194222
0.00136964
-0.000230464
-0.00284469
-0.00613125
-0.00937592
-0.0117282
-0.0124925
-0.0111662
-0.00761952
-0.00216759
0.00459488
0.0119555
0.0192672
0.0261071
0.0322894
0.0378492
0.0430334
0.0481373
0.0533861
0.0589697
0.0648554
0.0707967
0.0762828
0.0806505
0.0831406
0.0832346
0.0809233
0.0765371
0.0709784
0.0654579
0.0611795
0.0591295
0.0599162
0.0636092
0.0698368
0.0776742
0.085726
0.0923759
0.0959814
0.0951883
0.0892441
0.0781585
0.0625677
0.0438104
0.0234793
0.00330078
-0.0151525
-0.0306168
-0.0423712
-0.0502506
-0.0545949
-0.0562914
-0.0564936
-0.0562288
-0.0562132
-0.0566839
-0.0575467
-0.0585782
-0.0595336
-0.0602675
-0.0608215
-0.0610902
-0.0610131
-0.0603328
-0.0588919
-0.0567181
-0.0540585
-0.0513454
-0.0493211
-0.0491916
-0.0524518
-0.0608451
-0.0760614
-0.0992441
-0.130198
-0.166449
-0.202679
-0.230772
-0.240315
-0.219795
-0.158786
-0.0506503
0.104204
0.295794
0.503406
0.697369
0.84423
0.914457
0.891028
0.775085
0.587068
0.362022
0.140117
-0.0442817
-0.170623
-0.23531
-0.249143
-0.230952
-0.200206
-0.171491
-0.152097
-0.143147
-0.142209
-0.145724
-0.150869
-0.15616
-0.160956
-0.16521
-0.168818
-0.171743
-0.173842
-0.175056
-0.175234
-0.174244
-0.171948
-0.168269
-0.163245
-0.157261
-0.150915
-0.144934
-0.140101
-0.136957
-0.135715
-0.136153
-0.137724
-0.139638
-0.141221
-0.14196
-0.141499
-0.13992
-0.137431
-0.134273
-0.130839
-0.127401
-0.124258
-0.121676
-0.119813
-0.118746
-0.11839
-0.118416
-0.118316
-0.117542
-0.115608
-0.112238
-0.107513
-0.101843
-0.0958384
-0.090293
-0.0858659
-0.0830134
-0.0819352
-0.0825357
-0.0843735
-0.086833
-0.0893127
-0.0912501
-0.0921916
-0.0920162
-0.0908957
-0.0892467
-0.0877067
-0.0867884
-0.0869536
-0.0883306
-0.0907608
-0.0938701
-0.0971716
-0.100243
-0.102747
-0.104564
-0.105683
-0.106247
-0.106445
-0.106455
-0.106435
-0.106477
-0.106557
-0.106535
-0.105993
-0.10437
-0.101003
-0.0951951
-0.0866647
-0.0754672
-0.0620453
-0.0472758
-0.0321188
-0.0174978
-0.00410981
0.0076465
0.0176623
0.026075
0.0331343
0.0393016
0.0449965
0.050605
0.0563174
0.0621822
0.0680863
0.0739538
0.0796752
0.0850886
0.0901154
0.0945456
0.098078
0.100427
0.101451
0.101104
0.0996772
0.0976281
0.0953072
0.093024
0.0909209
0.0889254
0.0869358
0.0848945
0.0828121
0.0807261
0.0787502
0.0768466
0.0749139
0.0728307
0.0704768
0.0678798
0.0651012
0.0621648
0.0590594
0.0557524
0.0522041
0.0486463
0.0454853
0.0432088
0.0421813
0.04243
0.0434816
0.0445175
0.044762
0.0436068
0.0410451
0.0374934
0.033573
0.0298262
0.0264511
0.0233569
0.020274
0.0169905
0.0135106
0.0101003
0.00721035
0.00514152
0.00409204
0.00393599
0.00438004
0.00506601
0.00560686
0.00569428
0.00513825
0.00399802
0.00252641
0.00118454
0.00055226
0.000954044
0.00234473
0.00424985
0.00575553
0.00593633
0.0041281
0.000215428
-0.00529412
-0.011469
-0.0173356
-0.0220165
-0.0250298
-0.0262715
-0.0259691
-0.0245583
-0.0225565
-0.0204203
-0.0184848
-0.0169547
-0.0157813
-0.0148369
-0.0138884
-0.0127878
-0.0116219
-0.0105983
-0.00997195
-0.00995805
-0.0105186
-0.0112314
-0.0115784
-0.011034
-0.00923181
-0.0061718
-0.0022197
0.00210322
0.00636882
0.0102316
0.0138569
0.0175551
0.0219439
0.0276036
0.0349027
0.0438181
0.0538297
0.0640242
0.0732258
0.0803609
0.0845922
0.0856862
0.0841036
0.0808914
0.0772032
0.0742509
0.0727658
0.0727837
0.0738193
0.0749319
0.0750555
0.0734125
0.0697166
0.0641256
0.0570966
0.0492787
0.0409468
0.0322536
0.0229039
0.0126357
0.00125831
-0.0111009
-0.023833
-0.0360306
-0.0467053
-0.0550063
-0.06051
-0.0631987
-0.0635107
-0.0621312
-0.0598101
-0.0572003
-0.0548432
-0.0530189
-0.0519496
-0.0517623
-0.0525582
-0.0542706
-0.0567903
-0.0597525
-0.0626325
-0.0649631
-0.0665142
-0.0678058
-0.0702485
-0.0759985
-0.0874744
-0.106594
-0.133844
-0.167099
-0.201267
-0.228539
-0.238959
-0.221706
-0.166681
-0.0668002
0.0795166
0.265537
0.474627
0.680453
0.850538
0.952954
0.964817
0.879541
0.710333
0.487651
0.251334
0.0397864
-0.119779
-0.216682
-0.256247
-0.254559
-0.231223
-0.202746
-0.178913
-0.163084
-0.15416
-0.149436
-0.146553
-0.144415
-0.142895
-0.142289
-0.142662
-0.143709
-0.144836
-0.145551
-0.145605
-0.145037
-0.144057
-0.142992
-0.142007
-0.141129
-0.140315
-0.139482
-0.138709
-0.138077
-0.137625
-0.137429
-0.137155
-0.136385
-0.134681
-0.131645
-0.127263
-0.121891
-0.116186
-0.110871
-0.106621
-0.103779
-0.102307
-0.10179
-0.101689
-0.101449
-0.100731
-0.0994753
-0.0979447
-0.0964801
-0.0953823
-0.0947649
-0.0944286
-0.0939971
-0.0930096
-0.0912012
-0.0885323
-0.0851625
-0.0815545
-0.0779986
-0.0747219
-0.0718674
-0.0695515
-0.0678775
-0.0670349
-0.0671985
-0.0684236
-0.0705656
-0.0732924
-0.076155
-0.0787511
-0.0807526
-0.0820983
-0.0829103
-0.0835028
-0.0842308
-0.0854413
-0.0874595
-0.0904223
-0.0943092
-0.0988558
-0.103636
-0.108121
-0.111769
-0.114121
-0.114822
-0.113724
-0.110654
-0.105524
-0.0981856
-0.0886625
-0.0771829
-0.0642877
-0.0507972
-0.0375783
-0.0254123
-0.0146034
-0.00503322
0.00385842
0.0128023
0.0224858
0.0333021
0.0452274
0.0579909
0.0710746
0.0839282
0.0960931
0.107236
0.117146
0.12575
0.133041
0.138954
0.143537
0.146827
0.14891
0.149844
0.149822
0.149049
0.147724
0.146118
0.144423
0.142817
0.141399
0.140083
0.138785
0.137328
0.135652
0.133747
0.131757
0.129785
0.128051
0.126594
0.12532
0.124077
0.122667
0.120949
0.118972
0.116934
0.115165
0.113832
0.112999
0.11251
0.111966
0.110882
0.108805
0.105487
0.100888
0.0953289
0.0892309
0.0832315
0.0777749
0.0732546
0.0697496
0.067126
0.0650044
0.0630857
0.060914
0.0582134
0.0549135
0.0510833
0.0470738
0.0433582
0.0405015
0.0389443
0.0387909
0.0398226
0.0415058
0.0432148
0.0444461
0.0448579
0.044515
0.043599
0.0424326
0.0411782
0.0399394
0.038567
0.0369054
0.0346901
0.0318182
0.028343
0.0245113
0.0206916
0.0173472
0.0147842
0.0130977
0.0121411
0.011542
0.0108597
0.00972271
0.00802014
0.00579427
0.00336871
0.00114603
-0.000571908
-0.00158457
-0.00187613
-0.00157785
-0.000775263
0.000529524
0.00244449
0.00524794
0.00912136
0.0141444
0.0202393
0.0269936
0.0339252
0.0405563
0.0466239
0.0519265
0.0566514
0.0611191
0.0656353
0.0703629
0.0751547
0.0796814
0.0833428
0.085729
0.0865377
0.0858673
0.0842416
0.082443
0.0813933
0.0819509
0.0846177
0.0893519
0.0954453
0.101395
0.105424
0.105802
0.101377
0.0922033
0.0794275
0.0649792
0.05075
0.0380445
0.0272059
0.0175812
0.00820166
-0.00166462
-0.0119909
-0.0221084
-0.0309499
-0.0377476
-0.0423563
-0.0452234
-0.0471792
-0.0490099
-0.0510783
-0.0533032
-0.0553051
-0.0566501
-0.0571214
-0.0567723
-0.0559593
-0.0550853
-0.0544097
-0.0539395
-0.0535563
-0.0531717
-0.0528507
-0.0529787
-0.0545745
-0.0589786
-0.0677611
-0.0823698
-0.103572
-0.131102
-0.163058
-0.19541
-0.221943
-0.234759
-0.224837
-0.183036
-0.101471
0.0242698
0.19286
0.394689
0.610608
0.812657
0.968206
1.0469
1.02909
0.912777
0.716029
0.4734
0.226903
0.0148121
-0.137789
-0.223628
-0.251811
-0.241446
-0.213809
-0.185604
-0.165756
-0.156128
-0.154326
-0.156612
-0.160038
-0.163263
-0.166183
-0.168906
-0.171447
-0.173477
-0.174508
-0.174214
-0.172537
-0.169697
-0.166077
-0.162086
-0.158049
-0.154181
-0.150606
-0.147416
-0.144679
-0.142396
-0.140449
-0.138687
-0.136855
-0.13464
-0.131999
-0.129035
-0.126077
-0.123483
-0.121544
-0.120325
-0.119596
-0.119132
-0.118713
-0.118257
-0.117872
-0.117704
-0.117857
-0.118203
-0.118435
-0.118115
-0.116901
-0.114721
-0.111801
-0.108603
-0.105667
-0.103482
-0.102288
-0.101944
-0.102129
-0.102487
-0.102641
-0.102536
-0.102154
-0.101725
-0.101492
-0.101559
-0.101883
-0.102299
-0.102563
-0.102392
-0.101682
-0.100431
-0.0989208
-0.0975263
-0.0965864
-0.0964171
-0.0971439
-0.0985913
-0.100484
-0.102434
-0.104076
-0.105143
-0.105526
-0.105276
-0.104491
-0.103181
-0.101245
-0.0983993
-0.0942701
-0.0885217
-0.0809717
-0.0716941
-0.0611395
-0.0500246
-0.0391701
-0.0293035
-0.0207995
-0.013694
-0.00746057
-0.00139481
0.0052182
0.0129061
0.0218975
0.0319858
0.0427791
0.0537574
0.0643777
0.0742311
0.0830515
0.0906472
0.0970706
0.102402
0.106805
0.110393
0.113147
0.114977
0.115774
0.115572
0.114531
0.112968
0.111325
0.109943
0.108922
0.108184
0.107423
0.106326
0.104799
0.102882
0.100849
0.0990218
0.0976306
0.096729
0.0962643
0.0959906
0.0957275
0.0954328
0.0950111
0.0944515
0.0936009
0.0922881
0.0903005
0.0875675
0.0842215
0.0804684
0.0766237
0.0730483
0.0699095
0.0671575
0.0645793
0.0618948
0.0588705
0.0554129
0.0515498
0.0475371
0.0435938
0.0398959
0.036519
0.0333947
0.0304051
0.0275234
0.0248791
0.0226664
0.0211789
0.020504
0.0205944
0.0211757
0.0217602
0.0219242
0.021281
0.0196741
0.0172995
0.0144349
0.0114001
0.00853692
0.00594379
0.00358886
0.00129968
-0.00102022
-0.00345214
-0.00585208
-0.00792852
-0.00923134
-0.00945043
-0.0084218
-0.00632692
-0.00367031
-0.0011694
0.000485575
0.000823169
-0.000241816
-0.00244712
-0.00526332
-0.00801932
-0.0102524
-0.0116609
-0.0121344
-0.011816
-0.0110111
-0.00995309
-0.00886265
-0.00767371
-0.00616462
-0.00387257
-0.000512731
0.00410359
0.00972486
0.0158426
0.0217476
0.0269815
0.0313527
0.0351728
0.0390666
0.043811
0.0499174
0.0575164
0.0662717
0.0754807
0.0842391
0.0916074
0.0967673
0.0991134
0.0985384
0.0953535
0.0905061
0.0853595
0.0813625
0.0797504
0.0808548
0.08384
0.0869326
0.0879135
0.0848589
0.07676
0.0639375
0.0477712
0.030265
0.0133808
-0.00141044
-0.0134034
-0.0223967
-0.0287086
-0.0327587
-0.0350777
-0.0363047
-0.0372706
-0.0387072
-0.0410854
-0.0445793
-0.0488671
-0.053337
-0.0573001
-0.0602426
-0.0620398
-0.062821
-0.0628359
-0.0623146
-0.061426
-0.0602931
-0.0590673
-0.0581321
-0.0583237
-0.0608951
-0.0674205
-0.07945
-0.0980595
-0.123329
-0.153516
-0.184559
-0.209957
-0.221345
-0.209379
-0.165157
-0.0817073
0.0442448
0.210523
0.408266
0.621464
0.827854
1.00147
1.11696
1.15466
1.10541
0.973211
0.775079
0.537608
0.291316
0.06465
-0.121029
-0.254274
-0.333555
-0.365546
-0.361819
-0.33572
-0.299657
-0.263409
-0.233235
-0.211795
-0.198956
-0.192818
-0.190868
-0.190764
-0.190931
-0.190631
-0.189761
-0.188541
-0.187207
-0.185928
-0.1848
-0.183799
-0.18282
-0.181772
-0.180558
-0.179157
-0.177646
-0.176072
-0.174611
-0.173319
-0.172159
-0.171011
-0.169714
-0.168132
-0.166144
-0.163775
-0.161033
-0.15791
-0.154353
-0.150357
-0.145928
-0.141185
-0.1364
-0.131837
-0.127885
-0.124855
-0.12289
-0.121999
-0.12196
-0.122421
-0.122968
-0.123233
-0.123034
-0.122399
-0.121513
-0.120589
-0.119749
-0.118854
-0.117697
-0.115951
-0.113616
-0.11091
-0.108252
-0.106134
-0.104905
-0.104627
-0.105118
-0.1061
-0.1073
-0.108583
-0.109869
-0.111098
-0.112219
-0.113041
-0.113426
-0.113395
-0.113153
-0.113042
-0.113325
-0.11412
-0.115099
-0.115655
-0.115074
-0.11269
-0.108114
-0.101433
-0.0928975
-0.0829052
-0.0718893
-0.0602841
-0.0484848
-0.0369876
-0.0263928
-0.0173221
-0.0101566
-0.00512489
-0.00203931
-0.000531774
7.27175e-5
0.000457456
0.00110076
0.00244838
0.00467761
0.0078145
0.0117588
0.0164567
0.021883
0.0281301
0.0353684
0.0435774
0.0527178
0.0625296
0.0726152
0.0825066
0.0917124
0.0998925
0.106735
0.112053
0.115629
0.117492
0.117709
0.116588
0.114558
0.112277
0.110252
0.108733
0.107822
0.107221
0.106555
0.10552
0.103921
0.101854
0.0995005
0.0970782
0.0947445
0.0926369
0.0907722
0.0891873
0.0878724
0.0868082
0.0859661
0.085237
0.0844726
0.0834802
0.0821597
0.0803226
0.0779153
0.0748965
0.0713432
0.0673705
0.0631513
0.0589982
0.0551487
0.0517992
0.0490237
0.0466849
0.0446357
0.0425559
0.0401727
0.0373611
0.0340535
0.0303456
0.0263339
0.0222276
0.0182156
0.0145153
0.0114187
0.00910658
0.00776616
0.00729259
0.00749482
0.00801707
0.00845086
0.00857995
0.00824683
0.00749892
0.00641603
0.00500826
0.0032229
0.000987331
-0.00164786
-0.00447137
-0.00718118
-0.00935411
-0.0107604
-0.0114992
-0.0118978
-0.0124833
-0.0136665
-0.0156719
-0.0182624
-0.0210155
-0.0234414
-0.0251267
-0.0259089
-0.0257663
-0.0248582
-0.0233831
-0.0215283
-0.0194813
-0.0173691
-0.0153061
-0.0133405
-0.0115226
-0.00995724
-0.00875173
-0.00804813
-0.0078465
-0.00791825
-0.00785229
-0.0069281
-0.00435194
0.000356309
0.00738039
0.016276
0.026234
0.0361195
0.0449074
0.0518803
0.0569185
0.0603747
0.0630587
0.0659114
0.0696809
0.0746127
0.0803915
0.0862035
0.0910371
0.0939418
0.0945027
0.0930259
0.0904268
0.0880726
0.0871272
0.0885063
0.0923765
0.0980696
0.104127
0.108707
0.10983
0.106121
0.0969985
0.0829721
0.065554
0.0468035
0.0288183
0.0132516
0.000896718
-0.00826621
-0.0148483
-0.0196473
-0.0233715
-0.0264875
-0.0292869
-0.0319193
-0.0344339
-0.0369465
-0.0395438
-0.042447
-0.0456468
-0.0492224
-0.0530551
-0.0569697
-0.0606667
-0.0638151
-0.0661051
-0.0673143
-0.0674029
-0.0664747
-0.064786
-0.0627716
-0.0609479
-0.0597971
-0.0598032
-0.0615235
-0.0657071
-0.0732926
-0.0854142
-0.103101
-0.126872
-0.155911
-0.187393
-0.216085
-0.234665
-0.234217
-0.205437
-0.140107
-0.0330376
0.115774
0.298947
0.500471
0.696097
0.856305
0.952132
0.962479
0.880666
0.718073
0.50238
0.270743
0.0601225
-0.102143
-0.203865
-0.248554
-0.251056
-0.230671
-0.204517
-0.183364
-0.171212
-0.166961
-0.16722
-0.168822
-0.169871
-0.169923
-0.169314
-0.16856
-0.16788
-0.167214
-0.166388
-0.165155
-0.163319
-0.160919
-0.158004
-0.154706
-0.151229
-0.14777
-0.144617
-0.141945
-0.139825
-0.138174
-0.136865
-0.135652
-0.134287
-0.132712
-0.130845
-0.128762
-0.126601
-0.124444
-0.122424
-0.120456
-0.118469
-0.116308
-0.113897
-0.111311
-0.108664
-0.106187
-0.10404
-0.10222
-0.100553
-0.0987607
-0.0966766
-0.094416
-0.0922781
-0.0908011
-0.090476
-0.0914862
-0.0935605
-0.0961223
-0.0983943
-0.0997786
-0.100071
-0.0994407
-0.0983746
-0.0973503
-0.0965952
-0.0960923
-0.0955921
-0.0948064
-0.093677
-0.0923435
-0.0911589
-0.0904444
-0.0903772
-0.0908858
-0.0917952
-0.0928345
-0.0938672
-0.0948575
-0.096012
-0.0975466
-0.0996964
-0.102582
-0.106013
-0.109456
-0.112261
-0.113611
-0.112832
-0.109621
-0.104019
-0.096499
-0.0877112
-0.0783764
-0.0690018
-0.0599735
-0.0514852
-0.0436841
-0.0366164
-0.0301815
-0.0242069
-0.0183149
-0.0118673
-0.00439353
0.00452961
0.0149389
0.0264435
0.0382391
0.0493654
0.0589963
0.0665699
0.0719809
0.0755345
0.0778596
0.079648
0.0814115
0.0832868
0.0852061
0.0868396
0.0879437
0.0883592
0.0881772
0.0877063
0.0873814
0.0876819
0.0889848
0.0914754
0.0950296
0.0991172
0.102932
0.105532
0.106068
0.104235
0.100319
0.0951895
0.0899789
0.0857556
0.0830422
0.0818974
0.0818225
0.08202
0.0817453
0.0805587
0.0782646
0.0750363
0.0711211
0.0669455
0.0629662
0.0595897
0.0572058
0.0560278
0.0560032
0.0568199
0.0579027
0.0585463
0.058198
0.0565529
0.0536434
0.0498465
0.0455848
0.0412979
0.0372206
0.0334547
0.0300085
0.0268722
0.0241326
0.0218977
0.0202472
0.0191536
0.0184057
0.0176513
0.0166417
0.0153122
0.0138632
0.0127541
0.0125768
0.0137093
0.0160945
0.0191707
0.0219607
0.0235555
0.0232903
0.0210876
0.0174966
0.0133004
0.00937583
0.00629636
0.0042364
0.00288696
0.00183143
0.000775639
-0.000336544
-0.00122768
-0.00148135
-0.000872536
0.000527932
0.00224287
0.00364619
0.00395941
0.00279299
0.000189864
-0.00334196
-0.00704001
-0.0101385
-0.0121193
-0.012816
-0.0125253
-0.0116789
-0.010723
-0.00995466
-0.00944772
-0.00894996
-0.0081661
-0.00684448
-0.00486294
-0.0023629
0.00038881
0.00299402
0.00522882
0.00702719
0.00853031
0.0100403
0.0119603
0.0145074
0.0177859
0.0216762
0.0260404
0.030741
0.0358503
0.0415782
0.0481877
0.055861
0.0645748
0.0740205
0.0835269
0.0923341
0.0996561
0.104811
0.107354
0.107246
0.104886
0.101117
0.0969771
0.09366
0.0919807
0.0921802
0.0937131
0.0953582
0.0954761
0.0924718
0.0853656
0.0739371
0.0588302
0.0412773
0.0227709
0.00479885
-0.0114494
-0.0250379
-0.0353829
-0.0422319
-0.0455846
-0.0459713
-0.044399
-0.0421286
-0.0403788
-0.0401176
-0.0417673
-0.0452409
-0.0499155
-0.0549134
-0.0592794
-0.0622694
-0.0634815
-0.0629529
-0.0610955
-0.058588
-0.0561854
-0.0545827
-0.0541182
-0.0549267
-0.0571771
-0.0612863
-0.0681381
-0.079209
-0.0960033
-0.119576
-0.149363
-0.182114
-0.211175
-0.226459
-0.215153
-0.16389
-0.0625016
0.0917995
0.29018
0.510387
0.718608
0.875954
0.94849
0.917476
0.786134
0.579934
0.339581
0.109612
-0.0742337
-0.193234
-0.247565
-0.252073
-0.228084
-0.195348
-0.167198
-0.148956
-0.140154
-0.137707
-0.138282
-0.139677
-0.141026
-0.142224
-0.143315
-0.144228
-0.144794
-0.144837
-0.144332
-0.143338
-0.141983
-0.14036
-0.138521
-0.136518
-0.134279
-0.131767
-0.129017
-0.126191
-0.123539
-0.121226
-0.119465
-0.118277
-0.117395
-0.116551
-0.115426
-0.11374
-0.111432
-0.108605
-0.105388
-0.102052
-0.0987745
-0.0957195
-0.0929364
-0.0905115
-0.0885074
-0.0869851
-0.0860482
-0.0858025
-0.0863679
-0.0877584
-0.0897748
-0.0920851
-0.0941433
-0.0952731
-0.0949034
-0.0927623
-0.0888407
-0.0836499
-0.0780107
-0.0728574
-0.0690524
-0.067151
-0.0672361
-0.068976
-0.0717679
-0.0748658
-0.0775979
-0.0796006
-0.0807395
-0.0811872
-0.0812918
-0.0814564
-0.0819743
-0.0831252
-0.0849472
-0.0873731
-0.0902916
-0.0935868
-0.0971166
-0.100875
-0.104721
-0.108545
-0.11212
-0.114963
-0.116565
-0.116222
-0.113277
-0.10711
-0.0973359
-0.0839258
-0.0672531
-0.0481397
-0.0276661
-0.0070096
0.0127643
0.030927
0.0472336
0.0618815
0.0752469
0.087831
0.0998036
0.111037
0.121077
0.129419
0.135633
0.139701
0.141859
0.142675
0.142765
0.142489
0.142166
0.141732
0.141146
0.140387
0.13947
0.138559
0.137803
0.137338
0.137131
0.137117
0.137093
0.136853
0.136185
0.134841
0.132671
0.129569
0.1256
0.121136
0.116693
0.112746
0.109698
0.107618
0.106172
0.104816
0.102957
0.100253
0.0966235
0.0924618
0.0882645
0.0846065
0.0819495
0.0804485
0.0799786
0.080182
0.0805322
0.0804881
0.0796441
0.0778417
0.0751541
0.0719588
0.0686358
0.06558
0.0630794
0.0610394
0.0592777
0.0574245
0.0552484
0.052577
0.0495188
0.0462838
0.0431019
0.040075
0.0372804
0.0346669
0.0323333
0.0304434
0.0293402
0.0292938
0.0303438
0.0322721
0.0345478
0.0365575
0.03769
0.0376477
0.0364769
0.0344073
0.0319342
0.0294111
0.0269997
0.024819
0.0226192
0.0202874
0.017616
0.0145208
0.0110479
0.00728926
0.0034397
-0.000129043
-0.00311132
-0.00506862
-0.00563435
-0.00453727
-0.00182439
0.00229298
0.00749651
0.0133437
0.0195427
0.0258417
0.032174
0.0384587
0.0446112
0.0505524
0.0561275
0.0613644
0.0662993
0.0709193
0.0752733
0.0792787
0.0827915
0.0857705
0.0882883
0.0905689
0.0928766
0.0953761
0.0979109
0.100038
0.101095
0.100468
0.0979373
0.0938171
0.0889507
0.0845982
0.0820523
0.0822578
0.0855526
0.0912635
0.0978218
0.102986
0.104415
0.100335
0.0900733
0.0742448
0.0546156
0.0335655
0.0134693
-0.00384786
-0.017494
-0.0273219
-0.0339142
-0.0382121
-0.0410619
-0.0432878
-0.0453811
-0.0475098
-0.0495823
-0.0513416
-0.0525172
-0.0530423
-0.052988
-0.0525198
-0.0520007
-0.0515629
-0.0511967
-0.050779
-0.0500865
-0.0491745
-0.0483149
-0.0483938
-0.050906
-0.0577183
-0.0707175
-0.0913347
-0.119891
-0.154943
-0.192451
-0.225607
-0.244973
-0.238912
-0.195142
-0.10326
0.0414453
0.234184
0.457772
0.682707
0.871174
0.985578
0.999189
0.905078
0.719829
0.479893
0.231248
0.016435
-0.136847
-0.220856
-0.24578
-0.232549
-0.203776
-0.176443
-0.158902
-0.151921
-0.152098
-0.155205
-0.158211
-0.159757
-0.159719
-0.158635
-0.156966
-0.15495
-0.152813
-0.150726
-0.148757
-0.146973
-0.145267
-0.143565
-0.141832
-0.140151
-0.138655
-0.137521
-0.136809
-0.13637
-0.136033
-0.135473
-0.134408
-0.132749
-0.130589
-0.128141
-0.125689
-0.123566
-0.12192
-0.120748
-0.119856
-0.118933
-0.117555
-0.115414
-0.112259
-0.108049
-0.103036
-0.097606
-0.0923772
-0.0878935
-0.0847082
-0.08308
-0.0830466
-0.0843074
-0.0864019
-0.0887641
-0.0908857
-0.0923649
-0.0930674
-0.0930822
-0.0926033
-0.0919078
-0.0913383
-0.0910221
-0.0909983
-0.0912015
-0.0915309
-0.0918553
-0.0920725
-0.0921489
-0.0920021
-0.09171
-0.0912553
-0.0907125
-0.0901387
-0.0896495
-0.0892848
-0.0892002
-0.0894228
-0.0900364
-0.0911164
-0.0926634
-0.0944322
-0.0961886
-0.0973922
-0.097413
-0.0956009
-0.0913318
-0.084068
-0.0734743
-0.0595182
-0.0425343
-0.0233889
-0.00335142
0.0161027
0.033515
0.0478384
0.0587439
0.0666314
0.0724887
0.0775882
0.0828981
0.088989
0.0957799
0.102749
0.109112
0.11431
0.117961
0.119916
0.120387
0.11963
0.11799
0.115838
0.113474
0.111152
0.10896
0.106885
0.104785
0.102665
0.100689
0.0990392
0.0979991
0.0975972
0.0975946
0.0975102
0.0968168
0.0951263
0.0924795
0.0891322
0.0855064
0.0819784
0.0787399
0.0757458
0.0728198
0.0698779
0.0668458
0.0638407
0.0609191
0.05814
0.0554491
0.052681
0.0497962
0.0467316
0.0436387
0.0406967
0.0380089
0.0356593
0.0336944
0.032141
0.0310147
0.0303392
0.0301574
0.0303772
0.0307599
0.0308981
0.0304196
0.0289112
0.0262662
0.0225944
0.0182998
0.0139694
0.0101997
0.00742731
0.00588849
0.00540584
0.00560567
0.00603503
0.00619342
0.00583195
0.00483141
0.00325835
0.00135898
-0.000478784
-0.00194407
-0.00282609
-0.00305337
-0.00272487
-0.00208962
-0.00143248
-0.000942652
-0.000641307
-0.000441638
1.16266e-5
0.000979243
0.00263273
0.00498928
0.00787955
0.0111949
0.0148628
0.0189304
0.0235216
0.0287482
0.0345731
0.0408061
0.0471738
0.0534306
0.0594769
0.0655126
0.0716556
0.0780035
0.0843363
0.0901582
0.0947725
0.0974826
0.0978906
0.0961804
0.0930793
0.0897945
0.0877576
0.0879969
0.0908101
0.0955052
0.100399
0.103251
0.102077
0.0956744
0.0840265
0.0681497
0.0498081
0.0308723
0.0129194
-0.00298754
-0.0162107
-0.0265281
-0.0338028
-0.0381339
-0.0398587
-0.0396384
-0.0384352
-0.0372016
-0.0367294
-0.0374763
-0.0394375
-0.0422127
-0.0453847
-0.0483834
-0.0508529
-0.0526246
-0.0535681
-0.053556
-0.0526775
-0.0511251
-0.0492982
-0.0480083
-0.0486713
-0.0531967
-0.0636445
-0.0815899
-0.107429
-0.139355
-0.172937
-0.201657
-0.217913
-0.214776
-0.187609
-0.134901
-0.0576304
0.0420804
0.162349
0.301926
0.45887
0.62788
0.79723
0.947363
1.05276
1.08791
1.03561
0.894441
0.681769
0.430837
0.182227
-0.0273319
-0.174519
-0.253964
-0.276422
-0.262302
-0.233373
-0.205826
-0.187805
-0.180179
-0.179694
-0.182296
-0.185101
-0.186989
-0.188104
-0.188989
-0.189941
-0.190892
-0.191576
-0.191681
-0.191112
-0.189938
-0.188369
-0.18664
-0.184921
-0.183287
-0.181739
-0.180116
-0.178273
-0.176054
-0.17337
-0.170126
-0.166255
-0.161806
-0.15677
-0.15122
-0.145423
-0.139553
-0.133884
-0.128673
-0.124208
-0.120696
-0.118424
-0.117515
-0.117991
-0.119669
-0.122047
-0.124587
-0.126695
-0.127974
-0.128334
-0.127898
-0.126922
-0.125678
-0.124314
-0.122866
-0.12127
-0.119437
-0.117314
-0.11496
-0.112512
-0.11018
-0.108147
-0.106705
-0.10596
-0.106046
-0.106858
-0.108301
-0.110141
-0.112188
-0.114198
-0.116043
-0.117773
-0.119421
-0.121165
-0.123152
-0.125357
-0.127666
-0.129812
-0.131484
-0.132295
-0.132
-0.130353
-0.12724
-0.12259
-0.116365
-0.108704
-0.0997979
-0.089993
-0.0795908
-0.0688776
-0.0578849
-0.0466853
-0.035236
-0.0234634
-0.0114615
0.00060649
0.0124284
0.0237245
0.0342579
0.0440018
0.0529483
0.0612384
0.0689868
0.0761697
0.0826764
0.0882456
0.0926439
0.0957593
0.0977205
0.0988015
0.0994456
0.100089
0.100891
0.101836
0.102675
0.102996
0.102427
0.100898
0.0986142
0.0959948
0.0935525
0.0915987
0.0902451
0.089221
0.0879829
0.0858822
0.082564
0.0779788
0.072513
0.0669195
0.0620322
0.0584517
0.0565193
0.0560092
0.0564874
0.0574342
0.0583931
0.0591302
0.059646
0.0599118
0.0598816
0.0593734
0.0580386
0.0556025
0.0519116
0.0471112
0.0414713
0.0356125
0.030054
0.0251648
0.0211051
0.0178313
0.0150866
0.0126339
0.0103007
0.00803231
0.00587392
0.00392005
0.00222355
0.000896107
-0.000170981
-0.00109301
-0.00194797
-0.00284981
-0.0038303
-0.00471001
-0.00531088
-0.00541102
-0.00486227
-0.00374849
-0.00235199
-0.00125216
-0.000828571
-0.00152217
-0.00346955
-0.00641321
-0.00988156
-0.0132951
-0.0161227
-0.0180304
-0.0188811
-0.0187905
-0.0178961
-0.0162497
-0.0140028
-0.0113502
-0.00858213
-0.00608976
-0.00442339
-0.00393424
-0.004668
-0.00635698
-0.00836673
-0.0100168
-0.0106857
-0.010048
-0.00804095
-0.00476163
-0.000491141
0.004559
0.0102348
0.0164233
0.0229573
0.0296679
0.0363641
0.0428165
0.0487874
0.0542618
0.0593555
0.0642836
0.0692669
0.0744612
0.0798075
0.0848771
0.0890865
0.0917735
0.0923844
0.0909422
0.0879398
0.0844492
0.0817712
0.0811091
0.0830549
0.0872912
0.0924718
0.0965837
0.0975007
0.0935278
0.0840271
0.0694758
0.0514452
0.0319897
0.0131314
-0.00355239
-0.0172031
-0.027749
-0.0354478
-0.0407134
-0.0440382
-0.0457802
-0.0464151
-0.0464313
-0.0462936
-0.0464301
-0.0470914
-0.0483301
-0.0499251
-0.051635
-0.0531939
-0.0544349
-0.0552198
-0.0554782
-0.0551125
-0.0539789
-0.0520082
-0.0492153
-0.0458995
-0.0426657
-0.0404866
-0.0408407
-0.0456212
-0.0567077
-0.0756386
-0.103019
-0.137662
-0.176074
-0.211761
-0.235766
-0.236998
-0.203887
-0.126491
0.00032541
0.173417
0.378785
0.591098
0.776725
0.900634
0.935556
0.870619
0.716003
0.501284
0.267468
0.0554942
-0.104731
-0.200834
-0.238019
-0.233466
-0.2083
-0.180057
-0.158874
-0.147355
-0.143151
-0.142708
-0.143153
-0.14337
-0.143465
-0.143935
-0.144974
-0.146265
-0.147208
-0.147314
-0.146466
-0.144968
-0.143216
-0.141584
-0.140328
-0.139397
-0.138571
-0.137479
-0.135767
-0.13318
-0.129683
-0.125501
-0.120994
-0.116591
-0.112656
-0.109451
-0.107025
-0.105332
-0.104115
-0.103081
-0.101916
-0.100412
-0.0984992
-0.096211
-0.0936772
-0.0911346
-0.0887428
-0.0866417
-0.084882
-0.083489
-0.0824564
-0.0818433
-0.0816488
-0.0818671
-0.082418
-0.0832382
-0.0841512
-0.0849709
-0.0854334
-0.085407
-0.0848606
-0.0839027
-0.0829103
-0.0821553
-0.0818291
-0.0817976
-0.0817338
-0.0811824
-0.0798024
-0.0776687
-0.0752615
-0.0732661
-0.0724377
-0.0730459
-0.0750138
-0.0777401
-0.0804626
-0.0824682
-0.083378
-0.0832688
-0.0826386
-0.0821817
-0.0825698
-0.0843028
-0.0874424
-0.0916122
-0.095978
-0.0993051
-0.100207
-0.0974472
-0.0903654
-0.0791079
-0.0647018
-0.0488767
-0.0336
-0.0205532
-0.0106956
-0.0041785
-0.000269376
0.00213445
0.00440838
0.00761336
0.0124684
0.0192237
0.027681
0.0373445
0.0475441
0.0575803
0.0667573
0.0746152
0.0808569
0.0854266
0.0884706
0.0903336
0.0914154
0.0922318
0.0932145
0.0945279
0.0961397
0.0977256
0.0986958
0.0985212
0.0968205
0.0936003
0.0892487
0.0844454
0.0798422
0.0759318
0.0728275
0.0703698
0.0683251
0.066545
0.0651
0.064266
0.0643873
0.0655069
0.0673607
0.0693078
0.0705687
0.0704245
0.0686065
0.0652305
0.0608641
0.056297
0.0521413
0.0487415
0.0460274
0.0435189
0.0406878
0.0371073
0.032634
0.027535
0.0223668
0.017752
0.0143042
0.0122926
0.0115922
0.0118183
0.0122985
0.0123633
0.0113346
0.00896148
0.00525773
0.000722928
-0.00391029
-0.0077034
-0.00988075
-0.0100327
-0.00825894
-0.00515145
-0.00163847
0.00126932
0.00288081
0.00291867
0.00153356
-0.000754624
-0.0032961
-0.0055196
-0.00699185
-0.00758209
-0.0074098
-0.00669037
-0.00573956
-0.00485411
-0.00415032
-0.0036963
-0.00342103
-0.00341077
-0.00374943
-0.00471764
-0.00650402
-0.00930001
-0.0130606
-0.0173693
-0.0215586
-0.0248795
-0.0265182
-0.0260854
-0.0236378
-0.0196646
-0.0151002
-0.0108894
-0.00773466
-0.00589653
-0.00510786
-0.00467721
-0.00374385
-0.00170443
0.00182105
0.00674165
0.0126456
0.0189312
0.0250431
0.0305557
0.035308
0.0393922
0.0430671
0.0466844
0.0506738
0.0552812
0.0606441
0.0667354
0.0732565
0.0798142
0.0858943
0.0909796
0.0947146
0.0969221
0.0975069
0.0966105
0.0944362
0.0914762
0.0882764
0.085587
0.0839583
0.0836687
0.0844655
0.0854452
0.0852878
0.0826871
0.0765953
0.0666523
0.0532502
0.0374199
0.0205662
0.00415234
-0.0106835
-0.0232456
-0.033372
-0.0412637
-0.0472851
-0.0517199
-0.0546463
-0.0561146
-0.0560591
-0.0545441
-0.0519192
-0.048832
-0.0459441
-0.0439935
-0.0434623
-0.0445543
-0.0471693
-0.0508004
-0.0548101
-0.0584725
-0.0611587
-0.0625244
-0.0628984
-0.0632703
-0.0653761
-0.0713458
-0.0832114
-0.102311
-0.128502
-0.159537
-0.190626
-0.21463
-0.222642
-0.204752
-0.151234
-0.0547788
0.0870729
0.269099
0.476267
0.683789
0.859989
0.972492
0.996612
0.92281
0.760823
0.538321
0.294022
0.0674321
-0.110971
-0.226089
-0.279268
-0.284309
-0.26075
-0.227145
-0.196533
-0.175077
-0.163386
-0.15897
-0.158414
-0.15901
-0.159428
-0.159477
-0.159529
-0.16008
-0.161285
-0.162952
-0.164607
-0.165402
-0.164733
-0.162246
-0.157928
-0.152304
-0.146231
-0.140664
-0.136526
-0.134364
-0.134214
-0.13561
-0.137618
-0.139147
-0.139243
-0.137312
-0.133245
-0.127489
-0.120869
-0.114173
-0.108212
-0.103443
-0.100102
-0.0979923
-0.0968509
-0.0963255
-0.0961035
-0.0960788
-0.0962635
-0.0967167
-0.0975692
-0.0987012
-0.0998699
-0.100848
-0.101361
-0.101356
-0.10103
-0.100607
-0.10034
-0.100207
-0.0998411
-0.098749
-0.0965898
-0.093372
-0.0895244
-0.0859187
-0.0833961
-0.0826166
-0.0836107
-0.0859903
-0.0890627
-0.0921549
-0.0948125
-0.0969626
-0.098717
-0.100181
-0.101389
-0.102257
-0.102723
-0.102805
-0.102808
-0.10324
-0.104546
-0.106985
-0.110328
-0.113997
-0.11715
-0.119023
-0.118989
-0.116721
-0.112276
-0.105945
-0.098204
-0.0895455
-0.0806018
-0.0719623
-0.0639883
-0.0568646
-0.0504816
-0.0444274
-0.0380739
-0.0308656
-0.0222328
-0.0118771
0.000203816
0.0136242
0.0276958
0.0415946
0.0544919
0.0658456
0.0753175
0.0831045
0.0895205
0.0950874
0.100194
0.105037
0.10967
0.113957
0.117668
0.120576
0.122574
0.123621
0.123805
0.123294
0.122349
0.121177
0.119988
0.118876
0.117909
0.117105
0.116528
0.116262
0.116463
0.11717
0.118344
0.119807
0.121333
0.122545
0.123203
0.123153
0.122285
0.120626
0.118148
0.114927
0.111101
0.106835
0.102347
0.0978683
0.0935381
0.0894496
0.0856197
0.0820224
0.0786365
0.0755791
0.0728559
0.0705056
0.0685554
0.0669778
0.0657173
0.0647236
0.0639706
0.0633891
0.0628769
0.0623035
0.0614519
0.0601635
0.0584582
0.0564106
0.0543796
0.0526498
0.0514768
0.0509423
0.0509713
0.0514234
0.0521479
0.053002
0.0537907
0.0543926
0.0544187
0.053505
0.051494
0.048429
0.0447024
0.0409961
0.0379322
0.0359121
0.035029
0.0350109
0.0354704
0.0360247
0.0364585
0.0366139
0.0363611
0.0357168
0.0344296
0.0324086
0.0296077
0.0262036
0.0224979
0.0187792
0.0152884
0.012169
0.00946507
0.00714021
0.00537804
0.00428206
0.00399963
0.00465428
0.00624906
0.00863892
0.0117101
0.0153387
0.0193609
0.0237075
0.0282222
0.0327098
0.0370162
0.0411039
0.0449998
0.0487133
0.0522916
0.0557327
0.0589856
0.062017
0.0648758
0.0678674
0.0712815
0.0753246
0.0800082
0.085007
0.0896861
0.093319
0.0952014
0.09506
0.0930687
0.0899416
0.0867012
0.0845434
0.0844395
0.0868346
0.0913837
0.096819
0.101209
0.102385
0.0985943
0.0890114
0.0741085
0.0553627
0.0348996
0.0149664
-0.00264895
-0.0169061
-0.0274568
-0.0345383
-0.0387569
-0.0408591
-0.0417765
-0.0423542
-0.0431809
-0.0446257
-0.046685
-0.0491495
-0.0517298
-0.0542694
-0.0567133
-0.0590365
-0.0611706
-0.0628025
-0.0635904
-0.0633323
-0.0620222
-0.0601823
-0.0589312
-0.0599474
-0.0651317
-0.0763306
-0.0946703
-0.1201
-0.150741
-0.182548
-0.209789
-0.226047
-0.22575
-0.205727
-0.165809
-0.108431
-0.0366735
0.0478017
0.146406
0.263039
0.401223
0.559522
0.72746
0.883988
1.00047
1.04813
1.0074
0.875936
0.671447
0.427927
0.186424
-0.0165979
-0.158577
-0.234699
-0.255891
-0.242053
-0.213926
-0.187096
-0.169321
-0.161508
-0.160826
-0.16348
-0.16679
-0.169392
-0.171068
-0.172047
-0.172523
-0.172576
-0.172207
-0.171518
-0.170624
-0.169528
-0.168133
-0.166205
-0.163515
-0.159922
-0.15552
-0.150581
-0.145379
-0.14043
-0.136081
-0.132637
-0.130288
-0.129132
-0.129076
-0.129867
-0.131154
-0.132453
-0.133282
-0.133275
-0.132295
-0.130371
-0.127859
-0.125157
-0.122794
-0.121087
-0.120265
-0.12025
-0.120753
-0.121389
-0.121744
-0.121474
-0.120443
-0.118577
-0.11613
-0.113309
-0.11043
-0.107761
-0.105604
-0.104044
-0.103047
-0.102532
-0.102328
-0.102333
-0.102463
-0.102778
-0.103255
-0.104004
-0.104927
-0.105966
-0.106976
-0.108004
-0.109022
-0.110187
-0.111683
-0.113663
-0.116234
-0.119317
-0.122694
-0.126079
-0.129139
-0.131589
-0.133199
-0.133847
-0.133293
-0.131264
-0.127386
-0.121237
-0.112559
-0.101324
-0.087861
-0.0728174
-0.0571898
-0.0420204
-0.0284641
-0.0174571
-0.00963724
-0.00513408
-0.00355866
-0.00407303
-0.00540481
-0.00618558
-0.00510987
-0.00132897
0.00539583
0.0147013
0.0257959
0.0376198
0.0492168
0.0599089
0.0693137
0.0774477
0.0844285
0.090471
0.0957885
0.100464
0.104642
0.108367
0.11176
0.114785
0.117476
0.119713
0.121337
0.122208
0.122131
0.121031
0.118996
0.116243
0.11305
0.109741
0.106616
0.103854
0.101505
0.0995549
0.0978869
0.0963826
0.0949389
0.0933714
0.0916222
0.0895682
0.0871315
0.0843559
0.0812454
0.0780005
0.0747898
0.0718785
0.0693974
0.0675004
0.0661714
0.0653288
0.0647822
0.0643762
0.0637793
0.0626795
0.0607735
0.0578558
0.0539292
0.0493036
0.0445069
0.0401553
0.0367461
0.0343741
0.0328019
0.0315052
0.0298862
0.0276733
0.024913
0.0220557
0.0196965
0.0183035
0.0180296
0.0186198
0.0196183
0.0203833
0.020552
0.0198519
0.0183451
0.0161353
0.0134272
0.0103047
0.00702021
0.00377685
0.000889908
-0.00136824
-0.0027925
-0.0034105
-0.00346668
-0.00328047
-0.00325917
-0.00356876
-0.00417947
-0.00488754
-0.00530553
-0.00509706
-0.00401145
-0.00195447
0.00106655
0.00494796
0.00954902
0.0147183
0.0202103
0.0258055
0.0312653
0.0363607
0.0409674
0.0451815
0.0491505
0.0532271
0.0577404
0.0629515
0.0688409
0.0751044
0.0811135
0.0860054
0.0889744
0.0894308
0.0873027
0.0831641
0.0780092
0.0731881
0.0699858
0.0694239
0.0719116
0.0770944
0.0837062
0.0898587
0.0933982
0.0925965
0.0865609
0.0756107
0.0610751
0.0448557
0.0287918
0.0140761
0.00114189
-0.0102344
-0.0204446
-0.0296731
-0.0378288
-0.0446378
-0.0498519
-0.0534971
-0.0558905
-0.0575971
-0.0591173
-0.0608814
-0.0629919
-0.0653762
-0.0678281
-0.0700985
-0.07196
-0.0731147
-0.0732122
-0.0719657
-0.0692944
-0.0654188
-0.0609697
-0.0567878
-0.0541296
-0.0543781
-0.0590077
-0.0693501
-0.0864382
-0.110634
-0.141172
-0.175528
-0.208972
-0.234538
-0.243608
-0.226726
-0.174742
-0.0803661
0.0594771
0.24116
0.45209
0.669972
0.864605
1.00285
1.05644
1.01025
0.868327
0.654519
0.407028
0.168154
-0.0267783
-0.157915
-0.223438
-0.23657
-0.21824
-0.189276
-0.164362
-0.150086
-0.146281
-0.149196
-0.154411
-0.158829
-0.161205
-0.161789
-0.161501
-0.161268
-0.161418
-0.161898
-0.162325
-0.162234
-0.161347
-0.159684
-0.157524
-0.155332
-0.153501
-0.152179
-0.151265
-0.150345
-0.149058
-0.146978
-0.143906
-0.139815
-0.134939
-0.129668
-0.124461
-0.119628
-0.115425
-0.111791
-0.108614
-0.105796
-0.10337
-0.101385
-0.100076
-0.0995173
-0.0995567
-0.0998529
-0.0999728
-0.0995501
-0.0984945
-0.0969546
-0.0952529
-0.0936968
-0.0923498
-0.0911128
-0.0896168
-0.0876184
-0.085128
-0.0823376
-0.0797496
-0.0778294
-0.0769235
-0.0771108
-0.0781989
-0.0800303
-0.0822848
-0.0847512
-0.0872399
-0.089525
-0.091363
-0.0924884
-0.0927308
-0.0921784
-0.0911509
-0.0901005
-0.0895362
-0.0898425
-0.0910945
-0.0931336
-0.0956443
-0.0981424
-0.100361
-0.102011
-0.102903
-0.102917
-0.101875
-0.0994886
-0.0953831
-0.0892846
-0.080999
-0.0705059
-0.0582001
-0.0448227
-0.031404
-0.0190745
-0.0087171
-0.000881713
0.00442188
0.00775075
0.00994766
0.0119435
0.014466
0.0179553
0.0224564
0.0279008
0.0341927
0.0411586
0.0488205
0.0569677
0.0653712
0.0735823
0.0811238
0.0875729
0.0928349
0.0970673
0.10054
0.103576
0.106405
0.109026
0.111337
0.113148
0.114335
0.114831
0.114668
0.113809
0.11234
0.110331
0.107905
0.105226
0.10253
0.0999087
0.0973961
0.0949394
0.0924094
0.0896879
0.0867444
0.0837163
0.0808785
0.0786002
0.0770974
0.0763988
0.0763301
0.0764456
0.076279
0.0754453
0.073888
0.0718013
0.069509
0.0674263
0.0656879
0.0643016
0.0630099
0.0614717
0.0593943
0.0566458
0.0533308
0.049777
0.0463672
0.0434195
0.0410459
0.0392342
0.0377043
0.036048
0.0338733
0.0309616
0.0273531
0.0233371
0.0194432
0.0161795
0.0138239
0.01256
0.0121866
0.0124342
0.013063
0.0138491
0.0147907
0.0158282
0.0169215
0.0179229
0.0186384
0.0189235
0.018713
0.0180221
0.0168525
0.0151396
0.0128657
0.00996582
0.00652392
0.00279831
-0.000847764
-0.00406767
-0.00652252
-0.00809387
-0.00900378
-0.00949808
-0.00988279
-0.0104632
-0.0112871
-0.0123425
-0.0134719
-0.0144912
-0.0152315
-0.0153804
-0.0146423
-0.0126287
-0.00902932
-0.00370142
0.00324964
0.0113144
0.0197705
0.0279616
0.0353
0.0416003
0.0471404
0.0523579
0.0578818
0.0642088
0.0713721
0.079095
0.0867546
0.0934733
0.0984483
0.101131
0.101303
0.0993127
0.0958678
0.0919949
0.0887952
0.0872113
0.0878849
0.0907712
0.0951295
0.0994855
0.102026
0.101094
0.0956184
0.0854026
0.0711155
0.054168
0.0360854
0.018375
0.00212394
-0.0119688
-0.023445
-0.0320686
-0.0376393
-0.0401579
-0.0398559
-0.0373101
-0.0333392
-0.0289055
-0.0249741
-0.0223784
-0.0216081
-0.0228005
-0.025707
-0.0298106
-0.0344189
-0.0387783
-0.0423978
-0.0450128
-0.046556
-0.0471524
-0.0469056
-0.046067
-0.0447957
-0.0434528
-0.0427564
-0.0440187
-0.0490897
-0.0601134
-0.0789634
-0.106326
-0.141064
-0.179327
-0.214489
-0.237762
-0.239199
-0.208695
-0.137653
-0.0207747
0.141464
0.340478
0.557839
0.765711
0.930666
1.02085
1.01468
0.908418
0.719001
0.480734
0.236155
0.0244908
-0.128313
-0.214334
-0.242303
-0.2313
-0.202703
-0.173551
-0.153085
-0.143427
-0.142134
-0.145221
-0.149218
-0.152167
-0.153444
-0.153273
-0.152067
-0.150232
-0.148049
-0.145724
-0.143274
-0.14069
-0.137943
-0.135014
-0.131904
-0.128666
-0.125342
-0.122145
-0.119293
-0.117121
-0.115981
-0.115992
-0.117025
-0.118564
-0.119945
-0.120494
-0.119793
-0.117741
-0.11452
-0.110412
-0.105667
-0.100431
-0.0948708
-0.0892098
-0.0839
-0.079486
-0.0765407
-0.0753902
-0.0759282
-0.0776851
-0.0798565
-0.0815635
-0.082212
-0.0815151
-0.0796629
-0.0771804
-0.0746688
-0.072682
-0.071515
-0.0711976
-0.0716405
-0.0725964
-0.0739143
-0.075383
-0.0768833
-0.0782559
-0.0793688
-0.080176
-0.0805963
-0.0806861
-0.0805779
-0.0803304
-0.0801122
-0.0800295
-0.0800917
-0.080361
-0.0808045
-0.081412
-0.0821392
-0.0829322
-0.0838696
-0.0849958
-0.086494
-0.0885283
-0.0911502
-0.0942498
-0.097328
-0.0996231
-0.100092
-0.0977619
-0.0919632
-0.0826873
-0.0707496
-0.0574937
-0.0447538
-0.0340806
-0.026298
-0.0213728
-0.0181473
-0.0150565
-0.0106032
-0.00378239
0.00540775
0.0162206
0.0274053
0.0377389
0.0465142
0.0535319
0.0591891
0.0640503
0.0686845
0.0734165
0.0781802
0.0827302
0.086666
0.0896712
0.0915931
0.092388
0.0921903
0.0910843
0.0893536
0.0871408
0.0847232
0.0824435
0.08051
0.0791355
0.0782484
0.0776249
0.076952
0.0759486
0.0745882
0.0730939
0.0717913
0.0711094
0.0712483
0.0721746
0.0734965
0.0746357
0.0750056
0.0741418
0.0719897
0.0687825
0.0650353
0.0613163
0.0580375
0.0553635
0.0530084
0.0506188
0.0478033
0.0443484
0.0403384
0.0360603
0.031915
0.0282
0.0250604
0.0224802
0.020326
0.018483
0.0169093
0.0156254
0.0147421
0.0144399
0.0148737
0.0160546
0.0177803
0.0195831
0.0207096
0.0203643
0.01786
0.012988
0.00621619
-0.00142243
-0.00855743
-0.0138191
-0.0164459
-0.0164303
-0.0145424
-0.0121258
-0.0104363
-0.0103712
-0.012058
-0.0148532
-0.0176488
-0.0194287
-0.0195463
-0.0179778
-0.0152154
-0.0120856
-0.00931494
-0.00738466
-0.00637267
-0.00626559
-0.0068885
-0.00821231
-0.0101028
-0.0123611
-0.0147204
-0.0168116
-0.0182258
-0.0189454
-0.0191635
-0.0192975
-0.0198815
-0.0212092
-0.0232763
-0.0256036
-0.0274676
-0.0281276
-0.0271672
-0.0244312
-0.0202344
-0.0151992
-0.0100592
-0.00531503
-0.00117704
0.00263212
0.00655519
0.0111847
0.0169216
0.0237894
0.0313635
0.0388517
0.0454349
0.0504803
0.053745
0.0556026
0.0568038
0.0582088
0.0606074
0.064418
0.0696166
0.0755918
0.0813516
0.0858489
0.0882225
0.0880195
0.0854414
0.0812814
0.0767982
0.0733216
0.0719759
0.0733277
0.0770268
0.0818318
0.0857235
0.0865384
0.0824659
0.0725819
0.057351
0.0383299
0.0179015
-0.00146834
-0.0178902
-0.0304481
-0.0392156
-0.0450252
-0.0490699
-0.0523614
-0.0554633
-0.05843
-0.0608063
-0.0619214
-0.061366
-0.0592005
-0.0561631
-0.0533284
-0.0517505
-0.0521721
-0.054556
-0.0582221
-0.0621638
-0.0654072
-0.067502
-0.0687269
-0.0703675
-0.0742718
-0.0825713
-0.0970649
-0.118675
-0.146425
-0.176932
-0.204015
-0.218962
-0.211244
-0.169675
-0.084987
0.0473019
0.223718
0.430586
0.643673
0.83129
0.960455
1.00506
0.953292
0.811628
0.603868
0.36499
0.132034
-0.0648299
-0.208101
-0.294243
-0.330846
-0.331622
-0.311345
-0.28205
-0.251807
-0.225102
-0.203655
-0.187603
-0.176225
-0.168641
-0.163843
-0.160857
-0.158949
-0.157496
-0.156037
-0.154267
-0.151945
-0.149014
-0.145585
-0.141888
-0.138277
-0.135088
-0.132585
-0.131128
-0.130776
-0.131478
-0.133039
-0.134923
-0.136544
-0.137416
-0.137311
-0.136212
-0.134395
-0.132259
-0.130045
-0.127863
-0.125569
-0.122888
-0.119562
-0.115573
-0.111098
-0.106543
-0.102388
-0.09902
-0.0966178
-0.0951241
-0.0942905
-0.0937855
-0.0934656
-0.0931278
-0.0929254
-0.093068
-0.0935365
-0.0942544
-0.094899
-0.0949581
-0.0939759
-0.0916637
-0.0881108
-0.0837469
-0.0791165
-0.0748612
-0.0715064
-0.0694742
-0.0689197
-0.0698765
-0.0722356
-0.0756959
-0.0798705
-0.0844814
-0.0892925
-0.0942326
-0.099414
-0.104855
-0.110475
-0.116065
-0.121284
-0.12585
-0.129716
-0.132992
-0.135836
-0.138343
-0.14031
-0.141258
-0.14042
-0.13698
-0.13037
-0.12037
-0.10731
-0.0920501
-0.0757309
-0.059492
-0.0441492
-0.0300541
-0.0170636
-0.00462686
0.0077807
0.0204885
0.0335298
0.0465689
0.0592155
0.0710671
0.0817998
0.0912443
0.0992706
0.105746
0.1106
0.113921
0.116037
0.117569
0.119082
0.12113
0.123875
0.127111
0.130232
0.13271
0.133972
0.133883
0.132535
0.130325
0.127687
0.125006
0.122588
0.120544
0.118886
0.117517
0.11618
0.114635
0.112662
0.110167
0.107218
0.104048
0.101003
0.0984278
0.096508
0.095149
0.0941333
0.0930981
0.0916908
0.0898406
0.0877232
0.0855587
0.0837754
0.0826099
0.0820873
0.0820441
0.0820749
0.0817089
0.0804401
0.0779877
0.0743322
0.0697854
0.064921
0.0604238
0.0568971
0.0546875
0.0537403
0.0537784
0.0543034
0.054931
0.055419
0.055799
0.0561253
0.0565645
0.0572175
0.0579877
0.0587393
0.0591964
0.0590847
0.058199
0.0565795
0.0543619
0.0518334
0.0492553
0.0468619
0.0447416
0.0427917
0.0408038
0.0385603
0.0358685
0.0327136
0.0291999
0.0256138
0.0222115
0.0193529
0.0172081
0.0159109
0.0153511
0.0154112
0.0158779
0.0165198
0.0172369
0.0177784
0.0179518
0.0175648
0.0164742
0.014714
0.0126068
0.0106889
0.00967904
0.0101218
0.0122533
0.0159149
0.0206005
0.025714
0.0307564
0.0354832
0.0399127
0.044293
0.0488887
0.0539739
0.0597433
0.0662018
0.0732923
0.0807194
0.0880884
0.0949059
0.100533
0.104473
0.106344
0.105985
0.103499
0.099338
0.0941882
0.0890393
0.0848855
0.0826245
0.0826707
0.0848194
0.0880613
0.0907571
0.0911095
0.0875442
0.0791979
0.0660648
0.0491937
0.0302433
0.0111285
-0.00636642
-0.0209591
-0.0319522
-0.039232
-0.043146
-0.044443
-0.0440855
-0.0431823
-0.0427691
-0.0434832
-0.0456096
-0.0488975
-0.0528634
-0.0568196
-0.0602265
-0.0626671
-0.0639734
-0.0642443
-0.0636698
-0.0627227
-0.0622397
-0.0635796
-0.0685028
-0.0788689
-0.0962049
-0.121103
-0.152366
-0.186179
-0.215886
-0.231992
-0.222665
-0.175282
-0.0793809
0.0695715
0.266015
0.491506
0.715122
0.898101
1.00299
1.0044
0.897724
0.702034
0.455583
0.205089
-0.00755558
-0.156026
-0.234259
-0.253817
-0.236333
-0.204446
-0.174963
-0.1559
-0.147811
-0.147285
-0.150043
-0.153068
-0.155054
-0.155894
-0.156007
-0.155655
-0.154936
-0.153906
-0.152824
-0.151926
-0.151415
-0.15132
-0.15143
-0.151345
-0.150752
-0.149487
-0.147679
-0.145806
-0.144279
-0.143492
-0.143378
-0.143605
-0.143524
-0.142547
-0.140305
-0.136732
-0.132201
-0.127222
-0.1224
-0.118283
-0.115117
-0.112966
-0.111576
-0.110567
-0.109475
-0.107949
-0.105897
-0.103466
-0.101009
-0.0989462
-0.0975961
-0.0970585
-0.0972545
-0.0978688
-0.0986481
-0.0992564
-0.0994429
-0.0990189
-0.0978249
-0.095835
-0.0930558
-0.0897355
-0.0862273
-0.0829891
-0.0804669
-0.0789409
-0.0785228
-0.0790333
-0.0801514
-0.081432
-0.0824997
-0.083255
-0.0837766
-0.0843802
-0.0854241
-0.0873292
-0.0902598
-0.0941501
-0.0987483
-0.10351
-0.107889
-0.111377
-0.113653
-0.114419
-0.113628
-0.11106
-0.106513
-0.0997549
-0.0905263
-0.0788186
-0.0648481
-0.0491462
-0.0324312
-0.0154671
0.00126472
0.0173415
0.0326215
0.0469545
0.0601388
0.0718654
0.0816196
0.0891366
0.0944308
0.0979133
0.100441
0.102923
0.10614
0.110396
0.115445
0.120613
0.125081
0.128174
0.12948
0.129066
0.127214
0.124535
0.121523
0.11859
0.116019
0.113944
0.112226
0.110734
0.109129
0.107181
0.104721
0.101764
0.0986218
0.0956866
0.0933989
0.0920615
0.0916741
0.091952
0.0923568
0.0922986
0.0913594
0.0892944
0.0862425
0.0823965
0.0782381
0.0741382
0.0704695
0.0672883
0.0645716
0.0621207
0.0596757
0.0570017
0.054001
0.0506403
0.0470103
0.0432219
0.0393828
0.0356267
0.0321309
0.0291255
0.026837
0.0252592
0.0243263
0.0236863
0.0229118
0.0216145
0.019584
0.0168693
0.013788
0.0108927
0.00856552
0.0071843
0.00673824
0.00696322
0.00737996
0.00747268
0.00678948
0.00510435
0.00249333
-0.000714919
-0.00399786
-0.00682835
-0.00872038
-0.00940814
-0.00882545
-0.0070923
-0.00454188
-0.00135297
0.00231499
0.00642925
0.0110479
0.0161717
0.0216563
0.0272697
0.0325879
0.0371846
0.0408874
0.043721
0.0460956
0.0486802
0.0520977
0.0567166
0.0624847
0.0688386
0.0748576
0.079658
0.0824914
0.0830507
0.0816181
0.0789989
0.0762862
0.0746203
0.074947
0.0778126
0.0829842
0.0893265
0.0950178
0.0978964
0.0961386
0.0887666
0.0760122
0.0591034
0.0400054
0.0207874
0.00305426
-0.0122518
-0.0248297
-0.0348259
-0.0425176
-0.0481026
-0.0517394
-0.0537141
-0.054423
-0.0543044
-0.0537529
-0.0532159
-0.0529316
-0.0530754
-0.0536628
-0.0547201
-0.0562636
-0.05814
-0.060215
-0.0622027
-0.0636942
-0.0643867
-0.0642898
-0.0636652
-0.0632466
-0.0640182
-0.0669647
-0.072977
-0.0826982
-0.0964165
-0.114298
-0.136464
-0.16268
-0.191601
-0.219734
-0.240712
-0.245105
-0.220931
-0.155797
-0.0403035
0.12749
0.33816
0.568984
0.785603
0.948556
1.02313
0.989919
0.85209
0.636019
0.384262
0.143456
-0.0488484
-0.17312
-0.230074
-0.235817
-0.213292
-0.183519
-0.160011
-0.14761
-0.1449
-0.147855
-0.152712
-0.157229
-0.160643
-0.16314
-0.165029
-0.166378
-0.167001
-0.166723
-0.165456
-0.163348
-0.160663
-0.157638
-0.154502
-0.151316
-0.14799
-0.144367
-0.140265
-0.13571
-0.130928
-0.126219
-0.12195
-0.118327
-0.115401
-0.113099
-0.111228
-0.1096
-0.108084
-0.106608
-0.105119
-0.103583
-0.10201
-0.100408
-0.0989238
-0.0976668
-0.0967325
-0.0961998
-0.0959065
-0.0956522
-0.0951166
-0.0940005
-0.0920515
-0.0892066
-0.0855804
-0.0814013
-0.0770018
-0.0727277
-0.0688848
-0.0657134
-0.0634278
-0.0620591
-0.0616782
-0.0622773
-0.063709
-0.0657987
-0.0682541
-0.0707764
-0.0730993
-0.0750318
-0.0764591
-0.0774067
-0.0780059
-0.0783809
-0.0787895
-0.0793913
-0.0803036
-0.0815104
-0.0830433
-0.0847294
-0.0864427
-0.088106
-0.0895405
-0.0906519
-0.0912435
-0.0910099
-0.0894535
-0.0860659
-0.0801979
-0.0713446
-0.0592465
-0.0440176
-0.0262507
-0.00700044
0.0124647
0.0308246
0.0469654
0.0602232
0.0704601
0.0780391
0.0836785
0.0882488
0.0925053
0.0968594
0.101508
0.106245
0.110798
0.114804
0.117915
0.119895
0.120574
0.119851
0.117782
0.114616
0.110685
0.106545
0.102657
0.0993358
0.096691
0.0946288
0.092911
0.0912772
0.0894785
0.087398
0.0849218
0.0820235
0.0787349
0.0751623
0.0716454
0.068666
0.0667255
0.066194
0.0670637
0.0689513
0.0710387
0.0724182
0.072423
0.0707958
0.0678336
0.0641672
0.0606154
0.0576728
0.0554161
0.0535777
0.05156
0.0489022
0.0454066
0.0412009
0.0368404
0.0328768
0.0296584
0.0271101
0.02484
0.0221683
0.0185562
0.0138201
0.00828704
0.0027144
-0.0021076
-0.00549835
-0.00712368
-0.00711316
-0.00595307
-0.00420915
-0.00248218
-0.00120698
-0.000660046
-0.00092553
-0.00185917
-0.00331947
-0.00491969
-0.00640899
-0.00758231
-0.00830554
-0.00869327
-0.00892063
-0.00914538
-0.00945903
-0.00986041
-0.0101567
-0.0101938
-0.00983464
-0.0090309
-0.00785337
-0.00621385
-0.00411992
-0.00145992
0.00192623
0.00613534
0.0111658
0.0168506
0.0228642
0.0288088
0.0342378
0.0387966
0.0424456
0.0453704
0.0480858
0.0512824
0.0556136
0.0614126
0.0684595
0.0760273
0.0830774
0.0884627
0.0913137
0.0912939
0.0888037
0.0846916
0.0801544
0.0763883
0.0745077
0.0753125
0.0792285
0.086111
0.0951471
0.104659
0.112465
0.116173
0.11404
0.105453
0.0912554
0.0734008
0.0544893
0.036757
0.0214802
0.00883834
-0.00171208
-0.0109369
-0.019419
-0.0272283
-0.0340318
-0.0394095
-0.0432657
-0.0457721
-0.0474077
-0.0487267
-0.0502512
-0.0521561
-0.0544051
-0.0567419
-0.0589871
-0.0609053
-0.0624319
-0.0634411
-0.0638325
-0.0636058
-0.0627765
-0.0615026
-0.0602707
-0.0600592
-0.0624058
-0.0690735
-0.0819414
-0.10244
-0.130776
-0.16504
-0.200583
-0.229779
-0.242432
-0.226726
-0.171065
-0.0668842
0.0882446
0.287028
0.51059
0.729165
0.906571
1.00819
1.0106
0.909231
0.721408
0.482682
0.236979
0.0245897
-0.128109
-0.213468
-0.240725
-0.229591
-0.201676
-0.173769
-0.154665
-0.145982
-0.145008
-0.147834
-0.151365
-0.153976
-0.155258
-0.155376
-0.154686
-0.153475
-0.152067
-0.15075
-0.149714
-0.14906
-0.148689
-0.148308
-0.147613
-0.146439
-0.144694
-0.142451
-0.139904
-0.137231
-0.134653
-0.132255
-0.13006
-0.12802
-0.126102
-0.124221
-0.122363
-0.120404
-0.118125
-0.115367
-0.111961
-0.107877
-0.103325
-0.0986322
-0.0941491
-0.0902067
-0.0869046
-0.0841651
-0.0817823
-0.0796012
-0.0776444
-0.0760585
-0.0752057
-0.0753694
-0.0766808
-0.0790313
-0.0820127
-0.0850705
-0.0876792
-0.0894463
-0.0902123
-0.0900676
-0.0891135
-0.0875356
-0.0856128
-0.0835537
-0.0816626
-0.0802086
-0.0794308
-0.0794792
-0.0803677
-0.0819852
-0.0841498
-0.0866385
-0.0892113
-0.0917074
-0.0938959
-0.0957088
-0.0970063
-0.097869
-0.0984448
-0.0989187
-0.0994705
-0.100094
-0.100573
-0.100449
-0.0990686
-0.0957519
-0.0900071
-0.0817405
-0.0712305
-0.0591819
-0.046495
-0.0340825
-0.0226029
-0.0124631
-0.00361424
0.00428251
0.0117195
0.0192795
0.0273652
0.0361949
0.0457419
0.0557438
0.0657248
0.0751168
0.0833765
0.0901351
0.0951923
0.0985566
0.100501
0.101306
0.101267
0.10063
0.0995716
0.0982698
0.0968481
0.0953866
0.0940214
0.0927331
0.0914942
0.0903259
0.0892061
0.0882112
0.0873888
0.0867707
0.0863487
0.0860432
0.0856687
0.0850396
0.0839786
0.0824473
0.0805034
0.0783298
0.0762489
0.0744744
0.0729608
0.0715457
0.069924
0.0679125
0.0655477
0.0630384
0.0608503
0.0592843
0.0582633
0.0574226
0.056139
0.0538712
0.0503144
0.0456821
0.0405534
0.0356783
0.0317111
0.0290083
0.0275756
0.0270337
0.0267201
0.0260107
0.0244706
0.0219292
0.018534
0.0146142
0.0106792
0.00722365
0.00465775
0.00325344
0.00318076
0.00441721
0.00658579
0.00917355
0.0114563
0.0125971
0.0118804
0.0089697
0.00413297
-0.00196233
-0.00829708
-0.0138585
-0.0179586
-0.0203793
-0.0214737
-0.0218106
-0.0220249
-0.0225398
-0.0236006
-0.0250576
-0.0268387
-0.0286669
-0.0303252
-0.0316811
-0.0324661
-0.0324828
-0.0317093
-0.0301534
-0.028037
-0.0257449
-0.0237301
-0.0223864
-0.0219012
-0.0222133
-0.0230472
-0.0239147
-0.0243309
-0.0240493
-0.0231616
-0.0220774
-0.021333
-0.021427
-0.0224592
-0.0240788
-0.0254198
-0.0254905
-0.023395
-0.0187028
-0.0116434
-0.00288974
0.00649649
0.0155924
0.0237273
0.0305641
0.0361889
0.040784
0.044599
0.0478434
0.0506029
0.052928
0.0550048
0.0570607
0.0593448
0.0621148
0.0654165
0.0690764
0.0726425
0.0755361
0.0772614
0.0776596
0.0770358
0.0760401
0.0756523
0.0766138
0.0791914
0.0827982
0.0861513
0.0874259
0.0849755
0.0776857
0.0653105
0.0487201
0.0295452
0.00974017
-0.00878457
-0.0245604
-0.0368794
-0.0455799
-0.0509372
-0.053629
-0.0544982
-0.0545228
-0.0545565
-0.0552349
-0.0567883
-0.0589846
-0.0611874
-0.062638
-0.0626641
-0.0609386
-0.0576758
-0.0534611
-0.0491318
-0.0454372
-0.0429526
-0.0418942
-0.0421378
-0.0432792
-0.0448622
-0.0465282
-0.0480683
-0.049497
-0.051201
-0.0540254
-0.0592964
-0.0686917
-0.0837736
-0.105488
-0.133569
-0.165684
-0.197082
-0.220897
-0.228938
-0.212395
-0.163133
-0.0751304
0.0538512
0.22039
0.413516
0.613987
0.795523
0.929055
0.989073
0.960701
0.844978
0.66015
0.437659
0.214034
0.0217069
-0.118601
-0.201042
-0.232973
-0.229866
-0.208909
-0.184074
-0.163668
-0.150712
-0.144747
-0.143692
-0.145482
-0.148466
-0.151537
-0.153739
-0.154409
-0.153243
-0.150491
-0.146776
-0.142947
-0.139669
-0.137102
-0.134878
-0.132317
-0.128828
-0.124229
-0.118866
-0.113546
-0.109253
-0.10667
-0.106073
-0.107316
-0.109691
-0.112368
-0.114512
-0.115585
-0.115397
-0.114093
-0.112213
-0.110271
-0.108754
-0.107866
-0.107425
-0.106995
-0.106182
-0.104727
-0.102694
-0.100433
-0.0983377
-0.0966496
-0.095337
-0.0940143
-0.0922505
-0.0897699
-0.0865856
-0.0831847
-0.0801847
-0.0781351
-0.0773459
-0.0778519
-0.079384
-0.0815802
-0.0840062
-0.0862885
-0.0881408
-0.0893691
-0.0898329
-0.0896346
-0.0890298
-0.088442
-0.0882775
-0.0888472
-0.0901352
-0.0918938
-0.0936863
-0.0949895
-0.0955494
-0.0955084
-0.0953462
-0.0957682
-0.0974633
-0.100632
-0.105101
-0.110263
-0.115345
-0.119425
-0.121831
-0.121909
-0.119232
-0.113612
-0.105216
-0.0948263
-0.0837592
-0.0734743
-0.0652468
-0.0595334
-0.0558189
-0.0527828
-0.04895
-0.043021
-0.0344619
-0.0235025
-0.0107664
0.00303636
0.0172727
0.0315506
0.0454613
0.0583574
0.0694748
0.0780743
0.083876
0.0871666
0.0889927
0.0906508
0.0933082
0.0975137
0.103103
0.109256
0.114785
0.118592
0.120065
0.119076
0.116071
0.11177
0.107127
0.10297
0.0999539
0.0982946
0.0978978
0.0983329
0.0991412
0.0998446
0.100197
0.100065
0.0993565
0.0979507
0.0957697
0.0928191
0.0893113
0.0856815
0.0824663
0.0801823
0.0787936
0.0779445
0.0769038
0.0750586
0.0719852
0.0678689
0.0631956
0.0587108
0.0550146
0.0523351
0.0506363
0.0497103
0.0492679
0.0490365
0.0487018
0.047981
0.0464675
0.0439146
0.040292
0.035958
0.03148
0.0276068
0.0248451
0.0234052
0.023065
0.0231388
0.0229743
0.0220022
0.0200386
0.017203
0.0139537
0.0107156
0.00792131
0.00567975
0.00398847
0.00277896
0.00200116
0.001714
0.00200114
0.00292325
0.00441406
0.00621311
0.00799008
0.00939873
0.0102673
0.0105281
0.0102188
0.00944804
0.00831502
0.00682878
0.00499588
0.00285094
0.000467703
-0.00187549
-0.0039061
-0.00536078
-0.00615245
-0.00641666
-0.00656377
-0.00697372
-0.00802669
-0.00978322
-0.0120993
-0.0145528
-0.0167122
-0.0181491
-0.01873
-0.0184602
-0.0173302
-0.015365
-0.0125596
-0.00891849
-0.00441491
0.000772139
0.00634605
0.0119742
0.0173769
0.0224976
0.0275121
0.0325979
0.0380276
0.043809
0.0498519
0.0560189
0.062196
0.0683553
0.0745494
0.0807203
0.0866993
0.0920018
0.0960931
0.0983839
0.0987191
0.0973444
0.0949139
0.0924085
0.0907291
0.0905661
0.0921352
0.0951733
0.0989477
0.10236
0.104165
0.103207
0.0987174
0.0904133
0.078567
0.0640614
0.0480197
0.0316701
0.0160986
0.00205466
-0.0100296
-0.0199564
-0.0276649
-0.0331289
-0.0364934
-0.0380117
-0.0381219
-0.0373181
-0.036124
-0.0351074
-0.0346427
-0.0349346
-0.0360265
-0.0378635
-0.0402757
-0.0430538
-0.0459877
-0.0488702
-0.0514717
-0.053485
-0.0546597
-0.0548983
-0.0543336
-0.0534903
-0.0532627
-0.0548562
-0.0596308
-0.0688442
-0.0834709
-0.104038
-0.130121
-0.160041
-0.190708
-0.217575
-0.235075
-0.237442
-0.21958
-0.177552
-0.10859
-0.0107833
0.116627
0.272306
0.451024
0.641542
0.82527
0.977319
1.07071
1.08318
1.00447
0.84137
0.617627
0.368891
0.133612
-0.0568337
-0.18524
-0.250664
-0.265548
-0.24927
-0.220911
-0.194313
-0.176293
-0.167634
-0.165718
-0.166996
-0.168721
-0.169488
-0.169103
-0.16787
-0.166187
-0.164403
-0.162682
-0.16108
-0.159482
-0.157765
-0.155828
-0.15372
-0.151585
-0.149603
-0.14794
-0.146583
-0.145493
-0.14464
-0.144018
-0.14372
-0.143764
-0.144065
-0.14435
-0.144296
-0.143597
-0.142192
-0.140212
-0.137984
-0.135744
-0.133617
-0.131506
-0.129206
-0.126522
-0.123387
-0.119945
-0.116507
-0.113353
-0.110861
-0.109182
-0.108423
-0.108434
-0.108979
-0.109718
-0.110276
-0.110456
-0.110153
-0.109517
-0.108774
-0.108225
-0.108048
-0.108238
-0.108595
-0.1088
-0.108549
-0.107753
-0.106458
-0.104929
-0.103487
-0.102297
-0.101409
-0.100706
-0.100041
-0.09943
-0.099018
-0.0992399
-0.100484
-0.103152
-0.107345
-0.112794
-0.118978
-0.125086
-0.130263
-0.133749
-0.135083
-0.134003
-0.130474
-0.124623
-0.116683
-0.106995
-0.096103
-0.0846886
-0.0735203
-0.0633262
-0.054456
-0.0468571
-0.0399945
-0.0330223
-0.0251654
-0.0158625
-0.00494832
0.00734522
0.0204068
0.0336644
0.0465135
0.0584363
0.0690826
0.0782403
0.0858303
0.0919837
0.0969947
0.101206
0.104909
0.108249
0.111107
0.113301
0.114721
0.115356
0.115376
0.115063
0.114707
0.11447
0.114447
0.114549
0.11466
0.114656
0.11434
0.113473
0.112033
0.110072
0.107888
0.105945
0.104662
0.104251
0.104556
0.104993
0.104896
0.103738
0.101196
0.0974113
0.0929961
0.0886592
0.0850156
0.0824506
0.0808638
0.079825
0.0787386
0.0770338
0.07434
0.0706247
0.0661158
0.0612136
0.0562865
0.0516702
0.0474629
0.0437129
0.0404424
0.0376279
0.035413
0.0338567
0.0329622
0.0327569
0.033089
0.0335233
0.0337316
0.033303
0.0319503
0.0296273
0.0265046
0.0229812
0.0194667
0.0163152
0.0136744
0.0115077
0.00960717
0.00765343
0.00553443
0.00317439
0.000696242
-0.00172631
-0.0038901
-0.00564625
-0.00696343
-0.00780795
-0.00831057
-0.00860666
-0.00870754
-0.00862221
-0.00827495
-0.00745748
-0.00599577
-0.00377289
-0.000772651
0.00294822
0.0072514
0.0119273
0.0167491
0.0214918
0.0259205
0.0299042
0.0334852
0.0370237
0.0409981
0.045899
0.0519545
0.0589525
0.0661877
0.0725463
0.0768891
0.0784488
0.0771636
0.0737261
0.0695002
0.0661906
0.0653603
0.0678487
0.0734257
0.0806318
0.0871799
0.0905257
0.0887522
0.0811816
0.0686859
0.053183
0.0370817
0.0223471
0.00991075
-0.00041821
-0.00961258
-0.0186771
-0.0280901
-0.0375718
-0.0462522
-0.053205
-0.057728
-0.0598544
-0.0601652
-0.0595587
-0.0589276
-0.0588562
-0.0596206
-0.0610791
-0.0629656
-0.0649544
-0.066863
-0.0686848
-0.0703679
-0.0718266
-0.0729617
-0.0735474
-0.0734564
-0.0728515
-0.0724783
-0.0737813
-0.0788044
-0.0897431
-0.108286
-0.134617
-0.166793
-0.20029
-0.228651
-0.244456
-0.240902
-0.212769
-0.156616
-0.0701234
0.0485264
0.199873
0.381095
0.582772
0.786271
0.963924
1.08349
1.11658
1.04841
0.884566
0.651571
0.390357
0.144857
-0.0501232
-0.177143
-0.237812
-0.248096
-0.230148
-0.203994
-0.182426
-0.170227
-0.166312
-0.167238
-0.169862
-0.172333
-0.174195
-0.175636
-0.176769
-0.177466
-0.177466
-0.176683
-0.175213
-0.173377
-0.171479
-0.169749
-0.168291
-0.167071
-0.166067
-0.165151
-0.164289
-0.163398
-0.162348
-0.161057
-0.159417
-0.157345
-0.154906
-0.152138
-0.149141
-0.145993
-0.142669
-0.139137
-0.135309
-0.131257
-0.127131
-0.123142
-0.119544
-0.116569
-0.114386
-0.113054
-0.11253
-0.112699
-0.113326
-0.11424
-0.115186
-0.1161
-0.116828
-0.117238
-0.117298
-0.116883
-0.115988
-0.114662
-0.113019
-0.111188
-0.109431
-0.10791
-0.106708
-0.105887
-0.105485
-0.105321
-0.105172
-0.104774
-0.10382
-0.102178
-0.0998933
-0.0972645
-0.0947958
-0.0929652
-0.0921464
-0.0925459
-0.0941369
-0.0966104
-0.0996091
-0.102712
-0.105558
-0.107896
-0.109595
-0.110556
-0.110577
-0.109361
-0.106329
-0.100937
-0.0928254
-0.0819646
-0.0688907
-0.0546915
-0.0406715
-0.0279906
-0.017346
-0.00873861
-0.00155836
0.00513584
0.0122652
0.0204083
0.0296232
0.0396497
0.049985
0.0601083
0.0695962
0.0781573
0.0855903
0.091683
0.0963376
0.0995874
0.101598
0.102717
0.103267
0.103614
0.103956
0.104352
0.104755
0.105183
0.105606
0.105996
0.106316
0.106456
0.10623
0.105472
0.104177
0.102408
0.10042
0.0984348
0.0965635
0.0947625
0.0929297
0.0909019
0.0886054
0.0860043
0.083149
0.0799636
0.0763847
0.0722865
0.0677293
0.0629295
0.0583031
0.0542851
0.0512891
0.0494208
0.0485062
0.048121
0.0477475
0.0469144
0.0453129
0.0429359
0.0399448
0.0366201
0.0332506
0.0300691
0.0271949
0.0246642
0.0224685
0.0205671
0.0189483
0.0176175
0.0165394
0.0157219
0.0150517
0.0144796
0.0139181
0.0132669
0.0124491
0.0114291
0.0102299
0.00889938
0.00746894
0.00603251
0.00459207
0.00316845
0.00178318
0.000468844
-0.000858392
-0.00217149
-0.00348491
-0.00480132
-0.00605415
-0.00714059
-0.00803838
-0.00877312
-0.00950926
-0.0103868
-0.0114945
-0.012802
-0.0141402
-0.0151191
-0.0154763
-0.0150156
-0.0136729
-0.0114503
-0.00834541
-0.004285
0.000860372
0.00720958
0.0146238
0.0228209
0.0312883
0.0393643
0.0465072
0.0524087
0.0570397
0.0607362
0.0639815
0.0672432
0.0709151
0.0750809
0.0796311
0.08418
0.0881682
0.0910196
0.092352
0.0919456
0.0901898
0.0877845
0.0858017
0.0853852
0.0873387
0.0917468
0.097791
0.103603
0.106998
0.105905
0.0990038
0.0861144
0.068185
0.0469984
0.0246644
0.00317578
-0.0158662
-0.0313578
-0.0428166
-0.0502337
-0.0540076
-0.0549666
-0.054134
-0.0525707
-0.0510011
-0.0498907
-0.0493895
-0.0495462
-0.0503137
-0.0516284
-0.0533719
-0.0553722
-0.0573571
-0.0590893
-0.0604449
-0.0615073
-0.0623755
-0.0630637
-0.0634257
-0.0633217
-0.0625669
-0.0614729
-0.0611802
-0.0636493
-0.0713506
-0.0865661
-0.110668
-0.142974
-0.179917
-0.214748
-0.238103
-0.238852
-0.205778
-0.129317
-0.00411056
0.168223
0.376775
0.600385
0.808804
0.967676
1.04594
1.02468
0.903724
0.703433
0.460174
0.216861
0.0111225
-0.133802
-0.212885
-0.236951
-0.225909
-0.200595
-0.176454
-0.160986
-0.154829
-0.154883
-0.157343
-0.159515
-0.160367
-0.160016
-0.159101
-0.158092
-0.157125
-0.156167
-0.155107
-0.153879
-0.152374
-0.150633
-0.148716
-0.146767
-0.144865
-0.143049
-0.141293
-0.139511
-0.137617
-0.135606
-0.133555
-0.131599
-0.129875
-0.128422
-0.127167
-0.125909
-0.12437
-0.122295
-0.119636
-0.116478
-0.113079
-0.109784
-0.106875
-0.104566
-0.102802
-0.101465
-0.100357
-0.0992578
-0.098086
-0.0968521
-0.0956535
-0.0945673
-0.0936205
-0.0927581
-0.0918843
-0.0909638
-0.0899811
-0.0891005
-0.0885131
-0.08844
-0.088977
-0.0900484
-0.091348
-0.0925872
-0.0934085
-0.0936549
-0.0932738
-0.0924159
-0.0913709
-0.090379
-0.0897163
-0.0895273
-0.0899668
-0.0911189
-0.0930527
-0.0957003
-0.0989301
-0.102406
-0.105713
-0.108347
-0.109973
-0.110342
-0.109573
-0.107839
-0.105473
-0.102541
-0.0988741
-0.0939014
-0.0869256
-0.0772197
-0.0645105
-0.0491554
-0.0322541
-0.0153172
6.53513e-5
0.0127312
0.0223089
0.0291493
0.0342687
0.0387656
0.043578
0.0491474
0.0555966
0.0626695
0.0700551
0.077364
0.0842909
0.0905398
0.0958894
0.100106
0.103185
0.105215
0.10651
0.107439
0.108318
0.109278
0.110254
0.110952
0.110937
0.109762
0.107238
0.103415
0.0986267
0.0934685
0.0884863
0.0842217
0.0809317
0.0786567
0.0772459
0.0764448
0.0759592
0.0755637
0.0751083
0.0744321
0.0734836
0.0721417
0.0703611
0.0682104
0.0657962
0.0633544
0.0611149
0.0592018
0.0576076
0.05612
0.0544103
0.0521253
0.0489411
0.0447969
0.039806
0.0344193
0.0291577
0.0244891
0.0207798
0.0181043
0.0163061
0.0150571
0.0140326
0.0129237
0.0116623
0.0102132
0.0086016
0.00692151
0.00514431
0.00334005
0.00164353
0.000157478
-0.00087603
-0.0013044
-0.00116213
-0.000674668
-0.000302809
-0.000568363
-0.00195387
-0.00461854
-0.00829448
-0.012417
-0.0161498
-0.01879
-0.0200721
-0.0201699
-0.0197218
-0.0195364
-0.0202667
-0.0221163
-0.0248189
-0.0276019
-0.0296813
-0.0304534
-0.0296591
-0.027638
-0.0249783
-0.0223306
-0.0203694
-0.019464
-0.0197203
-0.0210345
-0.023061
-0.0254398
-0.0276025
-0.0290192
-0.0291277
-0.0274595
-0.0237605
-0.0179698
-0.0104341
-0.00182639
0.00700151
0.0151199
0.0217102
0.0263472
0.0290173
0.0300658
0.0301988
0.0302194
0.0309529
0.033141
0.037255
0.0433587
0.0511417
0.0597761
0.0681359
0.0750364
0.0795559
0.081409
0.0810936
0.0796222
0.0782964
0.0782954
0.0802181
0.0837386
0.0877021
0.0902747
0.0896067
0.0842438
0.0737171
0.0585798
0.0402079
0.0204558
0.00120973
-0.0159818
-0.0300815
-0.0406168
-0.0475622
-0.0513136
-0.0525389
-0.0521079
-0.0510922
-0.0503893
-0.0505898
-0.0518776
-0.0541239
-0.0568243
-0.0594243
-0.0613875
-0.0623785
-0.062211
-0.0608604
-0.0584102
-0.0551765
-0.0516784
-0.048957
-0.0486401
-0.0527399
-0.0632835
-0.0818839
-0.108951
-0.142749
-0.178732
-0.209553
-0.225402
-0.21528
-0.168797
-0.0782277
0.0591008
0.238944
0.449121
0.66975
0.875053
1.03701
1.13017
1.13704
1.0528
0.887466
0.664788
0.417402
0.179733
-0.0195113
-0.163007
-0.24699
-0.279737
-0.276781
-0.25521
-0.229121
-0.207196
-0.192615
-0.184884
-0.181854
-0.181551
-0.182688
-0.184629
-0.186895
-0.188823
-0.189615
-0.188664
-0.185959
-0.182068
-0.177866
-0.174278
-0.171789
-0.170369
-0.16964
-0.168996
-0.168076
-0.166744
-0.165273
-0.163956
-0.163003
-0.162432
-0.162056
-0.161548
-0.160681
-0.159372
-0.157785
-0.156069
-0.154397
-0.152828
-0.151281
-0.149551
-0.147537
-0.145192
-0.142583
-0.139871
-0.13728
-0.134904
-0.132829
-0.130952
-0.129082
-0.127166
-0.125274
-0.123711
-0.12289
-0.123159
-0.124665
-0.127111
-0.129847
-0.132092
-0.133232
-0.132913
-0.131293
-0.128777
-0.125868
-0.122995
-0.120466
-0.118396
-0.116759
-0.115576
-0.114821
-0.11457
-0.11489
-0.116023
-0.118218
-0.121858
-0.127163
-0.1341
-0.142153
-0.15053
-0.158173
-0.164209
-0.168054
-0.169551
-0.168776
-0.165848
-0.160602
-0.152822
-0.142201
-0.128776
-0.113097
-0.0961644
-0.0791292
-0.062999
-0.0482778
-0.0348498
-0.0221885
-0.00968637
0.00313083
0.016384
0.0298282
0.0429803
0.0552858
0.0663837
0.0759374
0.0837322
0.0897091
0.0938839
0.0963193
0.0973087
0.0971655
0.0963733
0.09525
0.0940517
0.0928729
0.0918259
0.0910495
0.0908515
0.0915817
0.0935189
0.0966824
0.100703
0.104864
0.10826
0.110087
0.10981
0.107317
0.102943
0.0974104
0.0914402
0.0859256
0.0816755
0.0790829
0.0782891
0.0789631
0.0803059
0.0813864
0.0811634
0.0789592
0.0746399
0.0686569
0.061845
0.0553315
0.0499481
0.0462468
0.0442998
0.0436894
0.0437508
0.0437568
0.0431759
0.0417636
0.0396235
0.0372219
0.0350425
0.0334214
0.0324744
0.031841
0.0310071
0.0295092
0.0269282
0.0233985
0.0193018
0.0152663
0.0119887
0.00996852
0.00935289
0.0100259
0.011633
0.0136741
0.01566
0.017183
0.0179638
0.0179675
0.0172934
0.0161551
0.0148761
0.0137748
0.013156
0.0130851
0.0134724
0.0139013
0.0139013
0.0130227
0.0108866
0.00747968
0.00310417
-0.00176338
-0.00634255
-0.00993883
-0.0120405
-0.0124644
-0.011331
-0.00907887
-0.00624762
-0.00346142
-0.0011733
0.000250708
0.00072292
0.000287553
-0.000776827
-0.00207338
-0.00300037
-0.00295188
-0.00140545
0.00197886
0.00718575
0.0139178
0.0215378
0.0293013
0.0366324
0.0430561
0.0485622
0.0534412
0.0580348
0.0627551
0.0678252
0.0731856
0.0786077
0.0838414
0.0885727
0.0925768
0.0956891
0.0978151
0.0988292
0.0986383
0.0972213
0.0947344
0.091517
0.0881653
0.0853165
0.0836203
0.0835157
0.0850941
0.0880094
0.0913604
0.0939981
0.0946022
0.0920114
0.0855042
0.0749393
0.0608097
0.04421
0.0267155
0.00999893
-0.00452011
-0.0158655
-0.0237936
-0.0286033
-0.0310944
-0.0322421
-0.0328541
-0.03348
-0.0342435
-0.0350601
-0.0358184
-0.0364031
-0.0368282
-0.037199
-0.0374781
-0.037547
-0.037115
-0.0359766
-0.0340859
-0.0319629
-0.0308618
-0.0326545
-0.0395401
-0.0534676
-0.0755268
-0.105117
-0.139238
-0.172125
-0.19551
-0.199184
-0.172034
-0.103854
0.0118221
0.174666
0.374601
0.590241
0.790488
0.939863
1.007
0.974075
0.843095
0.637104
0.394669
0.159079
-0.0333598
-0.162098
-0.225207
-0.236051
-0.215764
-0.18521
-0.159023
-0.143681
-0.138997
-0.141286
-0.146158
-0.15049
-0.152776
-0.152989
-0.151694
-0.149594
-0.147395
-0.145589
-0.144382
-0.14372
-0.143206
-0.142405
-0.14091
-0.138562
-0.135674
-0.132665
-0.130011
-0.128063
-0.126984
-0.126581
-0.12658
-0.126617
-0.126431
-0.125876
-0.124826
-0.123299
-0.121357
-0.119043
-0.116448
-0.113748
-0.111071
-0.108618
-0.106477
-0.104677
-0.103174
-0.101753
-0.100262
-0.0984723
-0.0963112
-0.0939323
-0.0915267
-0.0894395
-0.0879299
-0.0872114
-0.0871479
-0.0874793
-0.0877647
-0.0875403
-0.0865729
-0.0848691
-0.0827793
-0.0808125
-0.0795172
-0.0792418
-0.0800577
-0.081641
-0.0835425
-0.0852093
-0.0863787
-0.0870414
-0.0875259
-0.0883382
-0.0898737
-0.0923373
-0.0955416
-0.0989962
-0.102176
-0.104671
-0.106508
-0.107935
-0.109461
-0.111477
-0.114066
-0.11701
-0.119688
-0.121341
-0.121281
-0.119086
-0.114571
-0.107923
-0.0994744
-0.0896243
-0.0787388
-0.0672222
-0.0553668
-0.0433853
-0.0315035
-0.0197996
-0.00831622
0.00305082
0.0144121
0.0258515
0.0374361
0.0490628
0.0604899
0.0713831
0.0812827
0.0898147
0.0967017
0.102026
0.10605
0.109294
0.112267
0.115324
0.118391
0.121211
0.123319
0.124204
0.123625
0.121699
0.118834
0.115598
0.112655
0.110439
0.109258
0.108967
0.109196
0.109475
0.109277
0.108276
0.10641
0.103842
0.100922
0.0980529
0.0956194
0.0937372
0.0923756
0.0912761
0.0901208
0.088577
0.0865283
0.0838914
0.0807368
0.0772514
0.0736485
0.0701238
0.0668032
0.063766
0.0610387
0.058646
0.0565107
0.0545924
0.0528814
0.0513196
0.049946
0.0487318
0.0476601
0.0466788
0.0457827
0.0449262
0.044114
0.0432384
0.0421547
0.0407036
0.0387004
0.0360644
0.0327855
0.0290563
0.0250879
0.0212553
0.0178932
0.0151818
0.0132814
0.012144
0.0116711
0.0116599
0.0118741
0.0121259
0.0123266
0.012502
0.012839
0.0136443
0.0153223
0.0181909
0.0223246
0.0275909
0.0334682
0.0393404
0.0446425
0.0490645
0.0526487
0.0557094
0.0586471
0.0618006
0.0653586
0.0691877
0.0729377
0.0762385
0.0786789
0.0800452
0.0800606
0.0786465
0.0759282
0.072374
0.0687693
0.0662521
0.065987
0.0689231
0.0750983
0.083455
0.0918345
0.097538
0.098178
0.0924536
0.0805698
0.064003
0.0450152
0.0258086
0.00795839
-0.00787255
-0.0217973
-0.034055
-0.0447641
-0.0536609
-0.0602298
-0.0641363
-0.0653607
-0.0643526
-0.0619661
-0.0591439
-0.0568011
-0.0554779
-0.0553713
-0.0563164
-0.0579456
-0.0598368
-0.0616254
-0.0630291
-0.0639723
-0.0644653
-0.0646482
-0.0645859
-0.0644149
-0.0643463
-0.0650237
-0.0676821
-0.0740412
-0.086092
-0.105325
-0.131935
-0.164002
-0.196713
-0.222544
-0.231976
-0.214282
-0.15909
-0.0581002
0.0920103
0.286581
0.510152
0.735802
0.927973
1.0497
1.07251
0.986013
0.803008
0.557495
0.295493
0.0619531
-0.111429
-0.213081
-0.250884
-0.245274
-0.219974
-0.193846
-0.176802
-0.170338
-0.171073
-0.174489
-0.177275
-0.178176
-0.177452
-0.176005
-0.174569
-0.173443
-0.172669
-0.172157
-0.171855
-0.171613
-0.171242
-0.170519
-0.169351
-0.167755
-0.165846
-0.163733
-0.161566
-0.159343
-0.157004
-0.154625
-0.152335
-0.150192
-0.148193
-0.146208
-0.14398
-0.141164
-0.137627
-0.133548
-0.129319
-0.125465
-0.122342
-0.120121
-0.118638
-0.117708
-0.116983
-0.116348
-0.115838
-0.115566
-0.115712
-0.116461
-0.117848
-0.11973
-0.121747
-0.123296
-0.12389
-0.123153
-0.120948
-0.117677
-0.113984
-0.110647
-0.108252
-0.107065
-0.106902
-0.107246
-0.107544
-0.10726
-0.106211
-0.104471
-0.102334
-0.100193
-0.0984888
-0.0975389
-0.0976115
-0.0988073
-0.101037
-0.104037
-0.107433
-0.110769
-0.11366
-0.115943
-0.117482
-0.118302
-0.118339
-0.117326
-0.114915
-0.110529
-0.103585
-0.0936076
-0.0804042
-0.0641764
-0.0455014
-0.0253982
-0.0051078
0.0141512
0.0313157
0.0457783
0.057333
0.0661802
0.0728124
0.0777068
0.0812347
0.0836639
0.085146
0.08578
0.0858831
0.0857615
0.0857774
0.0862197
0.0871807
0.088493
0.0898727
0.0909384
0.0913968
0.0911516
0.0902496
0.0888817
0.0873477
0.0859296
0.084884
0.0842566
0.0839652
0.0837853
0.083362
0.0822693
0.0802409
0.0771368
0.0730536
0.0682749
0.0632332
0.0584233
0.0541814
0.0507743
0.048284
0.0466906
0.045843
0.0455727
0.0456073
0.0457092
0.0455934
0.0449788
0.0437112
0.0418833
0.0397014
0.0375028
0.0354862
0.0338017
0.0323591
0.0309533
0.029315
0.0272951
0.0248048
0.0219774
0.0189352
0.0158248
0.0127189
0.00960844
0.00648087
0.00337722
0.00040626
-0.00227647
-0.00448175
-0.00608132
-0.00697446
-0.00727117
-0.00718312
-0.00696377
-0.0068658
-0.00708181
-0.00769881
-0.00867314
-0.00984954
-0.0110303
-0.0120069
-0.0126689
-0.0130405
-0.0132348
-0.0133994
-0.0136927
-0.0141366
-0.0147672
-0.0155325
-0.0163686
-0.0172458
-0.0181267
-0.0189061
-0.0194266
-0.0194732
-0.0186053
-0.0165038
-0.0128619
-0.0075382
-0.00061443
0.00750901
0.0162143
0.0248948
0.0329007
0.0398415
0.0456313
0.0504486
0.0545958
0.0584652
0.0624602
0.0668118
0.0716598
0.0767766
0.0818402
0.0861978
0.0891085
0.0898315
0.087949
0.0835339
0.0773854
0.0709008
0.0656911
0.0632302
0.064308
0.0685253
0.0742865
0.0793443
0.0813223
0.0784483
0.0701548
0.0570748
0.0407322
0.0230942
0.00595144
-0.00938086
-0.022164
-0.0321256
-0.0394031
-0.0442468
-0.0471378
-0.0486616
-0.0495159
-0.0502377
-0.0511549
-0.0523189
-0.0535918
-0.0548117
-0.055918
-0.0569414
-0.0581141
-0.0595639
-0.0611665
-0.0626575
-0.0636053
-0.0635592
-0.0623152
-0.0599621
-0.0569018
-0.0537451
-0.0515003
-0.0515138
-0.0555639
-0.0654445
-0.0826413
-0.107671
-0.139334
-0.174002
-0.205404
-0.225113
-0.22328
-0.189851
-0.116004
0.00366563
0.168557
0.369329
0.586397
0.790619
0.947554
1.02539
1.00398
0.88222
0.680295
0.435284
0.191191
-0.0133524
-0.154717
-0.22821
-0.245572
-0.227847
-0.196776
-0.168324
-0.150214
-0.143024
-0.143458
-0.147343
-0.151583
-0.154653
-0.156374
-0.157052
-0.157115
-0.156825
-0.156361
-0.155741
-0.154862
-0.153454
-0.15114
-0.147764
-0.143397
-0.138489
-0.133725
-0.129858
-0.127313
-0.12619
-0.126101
-0.12634
-0.12618
-0.125182
-0.123212
-0.12053
-0.117623
-0.115006
-0.113012
-0.111724
-0.110965
-0.110481
-0.109961
-0.10922
-0.108205
-0.106939
-0.105367
-0.103503
-0.101353
-0.0989319
-0.0964646
-0.0942067
-0.0924926
-0.0916068
-0.0916793
-0.0925683
-0.0939269
-0.0953065
-0.0963178
-0.0966062
-0.0960934
-0.0949089
-0.0933291
-0.0916612
-0.0901334
-0.0888051
-0.0875501
-0.0862419
-0.0847979
-0.083338
-0.0821729
-0.0816593
-0.082096
-0.0835265
-0.0857067
-0.0881435
-0.0903545
-0.0920609
-0.0933717
-0.0946463
-0.09634
-0.0987811
-0.101955
-0.105506
-0.108835
-0.111234
-0.112039
-0.110634
-0.106541
-0.0993447
-0.088829
-0.0751014
-0.0587765
-0.0409557
-0.0231454
-0.00694272
0.00636389
0.0161331
0.0225827
0.0267322
0.0300444
0.0339464
0.0394656
0.0468468
0.0556768
0.0650333
0.0739179
0.0815698
0.0877028
0.0923378
0.0958676
0.0986865
0.101082
0.10318
0.104956
0.106326
0.107134
0.107377
0.107172
0.106748
0.106315
0.106058
0.105988
0.105941
0.105599
0.104549
0.102543
0.0995252
0.0957207
0.0916213
0.0877781
0.0847392
0.0827267
0.081774
0.081517
0.0815012
0.0812756
0.0804494
0.0789631
0.0769004
0.0744502
0.0718893
0.0694659
0.0673041
0.0654977
0.0640464
0.0628179
0.0615552
0.0599958
0.0577848
0.0547292
0.050798
0.0462026
0.0413957
0.0370254
0.0336062
0.031476
0.0305499
0.0305031
0.0307606
0.0307384
0.0301166
0.0286504
0.026414
0.023597
0.0204725
0.0173572
0.0143683
0.0116084
0.00916478
0.00708308
0.00555237
0.00486512
0.00525353
0.00682625
0.00937782
0.0122424
0.0144726
0.0151418
0.0137355
0.0102624
0.00539043
6.87407e-5
-0.00470355
-0.00827401
-0.0104608
-0.0114445
-0.0116868
-0.0115226
-0.0111781
-0.0107048
-0.0101173
-0.0094115
-0.00869542
-0.00810999
-0.00768742
-0.00726517
-0.00651454
-0.00490955
-0.00187749
0.00289267
0.00939333
0.0171137
0.0251523
0.0324924
0.0381114
0.0415033
0.0428501
0.043082
0.0434898
0.0454727
0.0498896
0.0568135
0.0653727
0.0739872
0.0809665
0.0850983
0.0859742
0.084212
0.0811532
0.0784033
0.077297
0.0784055
0.0816341
0.0862484
0.091229
0.0954611
0.0978449
0.0974409
0.0934797
0.0854005
0.0731699
0.0572478
0.0386473
0.0187618
-0.000727354
-0.0183476
-0.0329116
-0.0438117
-0.0509114
-0.0545274
-0.0553485
-0.0543875
-0.0526278
-0.0510545
